-4.110488175810590727e-03
-4.110487829275783801e-03
-4.110491435540084872e-03
-4.110499450356740712e-03
-4.110494068149421129e-03
-4.110467507868884561e-03
-4.110456053932445494e-03
-4.110495966742265701e-03
-4.110546076505407556e-03
-4.110522532324564771e-03
-4.110433799858024574e-03
-4.110402842028707156e-03
-4.110495263712823748e-03
-4.110595522505685294e-03
-4.110553367956504972e-03
-4.110413436210375374e-03
-4.110370376346973026e-03
-4.110487987907140983e-03
-4.110600988613711572e-03
-4.110557576520868298e-03
-4.110435076587375287e-03
-4.110404623561780997e-03
-4.110475868741877634e-03
-4.110523265816653886e-03
-4.110510718726814554e-03
-4.110514142882566030e-03
-4.110530258491308479e-03
-4.110464134482786323e-03
-4.110357324782047857e-03
-4.110409227265980972e-03
-4.110636792942378402e-03
-4.110725356446008963e-03
-4.110460457433241267e-03
-4.110152994516437681e-03
-4.110283419869660906e-03
-4.110753241551484520e-03
-4.110910418589967981e-03
-4.110471530775059411e-03
-4.110013361756150244e-03
-4.110196583464464232e-03
-4.110788896999206452e-03
-4.110966561348626189e-03
-4.110498692113506887e-03
-4.110060133600974483e-03
-4.110223926878463392e-03
-4.110676707270740846e-03
-4.110786810329034729e-03
-4.110534236822989927e-03
-4.110369982294082881e-03
-4.110413368578996578e-03
-4.110400995584189907e-03
-4.110346301738467510e-03
-4.110561909018237842e-03
-4.110906603918775340e-03
-4.110743335411698451e-03
-4.110031568543972419e-03
-4.109756796105486221e-03
-4.110562611354787871e-03
-4.111488175513734571e-03
-4.111102267302291571e-03
-4.109723181555056601e-03
-4.109265699685994873e-03
-4.110523909794894411e-03
-4.111824544690148922e-03
-4.111311397655427122e-03
-4.109666573741231274e-03
-4.109177565793909435e-03
-4.110450023559094647e-03
-4.111631524948759948e-03
-4.111194946599431958e-03
-4.109998808125596946e-03
-4.109710587098650003e-03
-4.110365519052178347e-03
-4.110787593199308546e-03
-4.110676928560805243e-03
-4.110707836878366855e-03
-4.110844751563531678e-03
-4.110310470349651420e-03
-4.109462876695202035e-03
-4.109860620388154813e-03
-4.111582195763468714e-03
-4.112242077507722790e-03
-4.110324092145880605e-03
-4.108137106428749914e-03
-4.109040856584013357e-03
-4.112249683652104658e-03
-4.113307520559048198e-03
-4.110423493452051123e-03
-4.107461673208100128e-03
-4.108619878497805737e-03
-4.112312200100872416e-03
-4.113404482093316848e-03
-4.110587740819121941e-03
-4.107986937320524251e-03
-4.108939135213427948e-03
-4.111537661134196178e-03
-4.112162338754361303e-03
-4.110757883755173682e-03
-4.109855252523041472e-03
-4.110088417412063704e-03
-4.110026205543548458e-03
-4.109742224930182548e-03
-4.110851844353047985e-03
-4.112600815847408837e-03
-4.111781717411485369e-03
-4.108264661527089544e-03
-4.106927595113107898e-03
-4.110808535755017257e-03
-4.115203951226061897e-03
-4.113387527180864534e-03
-4.106996132795018815e-03
-4.104909082041544033e-03
-4.110606032951179267e-03
-4.116415587257914177e-03
-4.114138626755877923e-03
-4.106951119297626643e-03
-4.104846797435843589e-03
-4.110291891168386773e-03
-4.115285171628653774e-03
-4.113450543005666739e-03
-4.108490744243870757e-03
-4.107309602582289582e-03
-4.109978869615251579e-03
-4.111690340965212104e-03
-4.111247569168398341e-03
-4.111341080476992385e-03
-4.111853299300672303e-03
-4.109808761191401094e-03
-4.106608959027181760e-03
-4.108129198445233630e-03
-4.114556461158002526e-03
-4.116967188796954655e-03
-4.109894970019199734e-03
-4.101947086188682812e-03
-4.105263809809642575e-03
-4.116785209209293528e-03
-4.120501328499572534e-03
-4.110264113437039901e-03
-4.099896905202825466e-03
-4.103994593749449478e-03
-4.116785502548565671e-03
-4.120489039026138840e-03
-4.110823933409308607e-03
-4.102012608671155511e-03
-4.105273212525638142e-03
-4.114011784076313308e-03
-4.116076935290073451e-03
-4.111376513857361963e-03
-4.108361834519401977e-03
-4.109142027431300810e-03
-4.109022766236495629e-03
-4.108164969267555193e-03
-4.111680303400288769e-03
-4.117151538383526446e-03
-4.114507678727991231e-03
-4.103488399249705099e-03
-4.099407494625758111e-03
-4.111544759028258611e-03
-4.125097144701698852e-03
-4.119368280241456765e-03
-4.099706805276198858e-03
-4.093439846313705680e-03
-4.110923382289634678e-03
-4.128528386096755494e-03
-4.121488350912248452e-03
-4.099740570726382975e-03
-4.093509299029749263e-03
-4.109965737541362331e-03
-4.124901646503738827e-03
-4.119318184433016887e-03
-4.104467938808107307e-03
-4.100981995074663364e-03
-4.108998652325578961e-03
-4.114149590230558109e-03
-4.112811471137874444e-03
-4.112939335339475290e-03
-4.114340539180280469e-03
-4.108429470929875205e-03
-4.099259400183892163e-03
-4.103774130927781774e-03
-4.122374152997561499e-03
-4.129193348841101591e-03
-4.108595686771684269e-03
-4.085683662303638691e-03
-4.095506234789064552e-03
-4.128926113897512726e-03
-4.139490354379040012e-03
-4.109610976576342882e-03
-4.079598985502282463e-03
-4.091749420499327626e-03
-4.129053469487485063e-03
-4.139678406043637016e-03
-4.111267723528448138e-03
-4.085500730556030323e-03
-4.095235506511193252e-03
-4.121055204025148543e-03
-4.127105671519520382e-03
-4.113045628177777226e-03
-4.103970384676477491e-03
-4.106339608006047068e-03
-4.106196694186107360e-03
-4.103774246323183342e-03
-4.114241950037513321e-03
-4.130516265051189205e-03
-4.122377923170649286e-03
-4.088916833406072183e-03
-4.076653665958013956e-03
-4.114195851790505495e-03
-4.156113286763914172e-03
-4.137925091224377641e-03
-4.075885940185490670e-03
-4.056202130935944450e-03
-4.112537408598006435e-03
-4.169509661676874812e-03
-4.146193122703923685e-03
-4.074085763766668693e-03
-4.053366427290882451e-03
-4.109372809881101443e-03
-4.160720687751076272e-03
-4.141127749885854456e-03
-4.088466622517179100e-03
-4.075923549911890723e-03
-4.105327757841247850e-03
-4.124626342513360716e-03
-4.119577713843977120e-03
-4.119955538372530382e-03
-4.125363523394334764e-03
-4.101412360367243451e-03
-4.063431185093785078e-03
-4.082796692542235879e-03
-4.164547428200164776e-03
-4.195445392941274908e-03
-4.098730496974625596e-03
-3.987024573127792224e-03
-4.036699694574465147e-03
-4.213898763021775747e-03
-4.273079918388172742e-03
-4.098116368706817420e-03
-3.910921706068220746e-03
-3.990671471551782319e-03
-4.257357902930851423e-03
-4.341449975467163470e-03
-4.099819439241506221e-03
-3.852270739239142643e-03
-3.955196592585042900e-03
-4.284865918573515543e-03
-4.384516781805685055e-03
-4.103356309322550924e-03
-3.825093005478959196e-03
-3.938990004454083656e-03
1.581191747850917498e-04
4.540474625095488465e-05
3.343619957546896740e-04
6.177275932525766108e-04
5.154573971585894171e-04
1.808395625312137975e-04
7.066590708945663657e-05
3.228747079797294334e-04
5.756527025601743813e-04
4.853819492492156967e-04
2.146295992936182381e-04
1.263006869299428125e-04
3.184670630134427832e-04
5.006143367990373641e-04
4.442565195098722650e-04
2.694232085867749940e-04
2.121013634632440067e-04
3.248762642281428220e-04
4.180548291003250219e-04
3.811854054731602867e-04
2.983439358254002041e-04
2.795531422536750785e-04
3.099567809874640562e-04
3.322585396235890748e-04
3.351130682826691798e-04
3.447762328306217330e-04
3.516304929620656106e-04
3.376623002846511692e-04
2.916679534252786254e-04
3.019280341823964153e-04
3.589119897295725559e-04
3.829487846908298174e-04
3.273357983480263550e-04
2.635744262547952757e-04
2.892749745649304469e-04
3.529964091103015775e-04
3.780526505373412588e-04
3.272251531009542219e-04
2.651152912598112033e-04
2.756811271217201112e-04
3.449601721935459386e-04
3.662675057392655517e-04
3.280728894681800983e-04
2.917389518533276480e-04
3.031705504857916747e-04
3.266601691864880544e-04
3.343303736882399443e-04
3.225790696147175576e-04
3.134977884864491304e-04
3.200820897141009105e-04
3.093964073931339612e-04
2.996955700917645904e-04
3.095761004855649562e-04
3.349932209887806697e-04
3.484567245854164330e-04
3.335669863014324374e-04
3.387567611197652567e-04
3.748384359327739876e-04
4.106833286687911963e-04
4.172516942056673367e-04
3.722129419472010314e-04
3.381420541155137627e-04
3.565737984301351610e-04
3.745862859549304105e-04
3.417575738103402136e-04
2.788445719170617662e-04
2.707815146320100702e-04
2.997387363498117685e-04
3.240130560109985222e-04
3.218883531693394681e-04
3.094708203579847258e-04
3.068219714595522146e-04
2.894032082812391868e-04
2.886639026557164325e-04
3.034193575083164382e-04
3.083746224494688520e-04
2.988702426125521353e-04
2.853644954420595306e-04
2.649001859103324724e-04
2.575168539912355350e-04
2.949266767275499079e-04
3.186720768300751669e-04
2.921377507277495358e-04
2.561904959261221068e-04
2.500941138038753619e-04
2.778235816857307916e-04
3.233387672128811702e-04
3.213391017524826546e-04
2.625494980423642363e-04
2.294959330185171800e-04
2.273716895974239524e-04
2.104785595025190220e-04
2.123461275131861836e-04
2.553490781387161845e-04
3.418340693694191246e-04
5.578181384505807167e-04
8.750439507968256481e-04
1.218017890081217122e-03
1.554357487970422017e-03
1.749047419111022898e-03
1.446061592839981320e-03
1.074181417276019734e-03
6.963201571695059808e-04
3.655612212905539476e-04
2.676258576235950384e-04
3.092972097724737413e-04
3.775710914505989862e-04
4.025147887499235314e-04
3.718216405823567342e-04
3.344141605893446653e-04
3.079147611501787535e-04
3.248920042836023550e-04
3.420933165363907597e-04
3.261960417618491384e-04
3.076652795296714801e-04
3.032713370423488139e-04
3.179294632954451916e-04
3.352988521418236167e-04
3.281867346994421855e-04
3.056018953218105766e-04
2.880442465436573382e-04
2.863958257726508319e-04
3.034797531151905980e-04
3.152090063543583343e-04
3.166712906905221406e-04
3.031462396935555997e-04
2.924509179471962081e-04
2.944644912825991612e-04
3.095118769698710151e-04
3.144087221368663254e-04
3.157697706681642999e-04
3.105925889511692434e-04
3.101394625283178039e-04
3.080159935436822469e-04
3.110473472853350976e-04
3.202043052978244958e-04
3.115591561374426999e-04
2.893339663403897769e-04
3.024613568455170737e-04
3.090358193372959653e-04
3.191916918120919072e-04
3.209599090672416236e-04
3.110149763547133059e-04
3.150872898530325539e-04
3.286111187118783555e-04
3.277722368477137965e-04
3.404991517425926331e-04
3.427062772294858090e-04
3.408474830164862079e-04
3.455212434022338075e-04
3.477482252616089994e-04
3.538187118335431661e-04
3.539786658048249199e-04
3.599860227717728220e-04
3.569321196436785540e-04
3.719997840074644457e-04
3.840955147527318550e-04
3.868557390919414793e-04
3.907172318950132353e-04
3.895042651627595234e-04
3.888980927912533483e-04
4.065756559920880725e-04
4.100250807580960166e-04
4.167739755660104101e-04
4.135868009199974993e-04
4.149859740758144594e-04
4.201954139073683925e-04
4.168134789762287240e-04
4.346792522207949122e-04
4.414560463258439954e-04
4.259786513414803508e-04
4.333796515732504448e-04
4.439690141865666392e-04
4.437170491919826751e-04
4.435365963016612775e-04
4.390266799017888619e-04
4.370317976801684975e-04
4.243424209332208666e-04
4.136737228465957664e-04
4.105494915300879691e-04
4.001129873100542356e-04
3.826736708790919039e-04
3.605799166386501609e-04
3.354782063449386967e-04
3.205585748398695825e-04
3.034291391830045564e-04
2.866637490075108971e-04
2.769285610356138697e-04
2.628691637859351116e-04
2.559098023911373851e-04
2.556185181361190703e-04
2.554200758610389310e-04
2.361982524080622967e-04
2.331872940977801345e-04
2.220982565007915271e-04
2.078335907779527494e-04
2.035858298679044803e-04
2.128738723154400755e-04
2.213317038966718109e-04
2.216031969908506191e-04
2.116113303913570720e-04
2.040926786306537441e-04
2.083195721376369589e-04
2.168690961422154589e-04
2.197506935169750777e-04
2.166378719187511681e-04
2.171221548214630898e-04
2.040002734968382123e-04
1.952469382225496125e-04
1.996477326571387961e-04
2.084851186502072878e-04
2.059760468732380057e-04
2.086404570354385285e-04
1.940293942245333025e-04
1.802040250602175708e-04
1.894112441547099110e-04
2.079130307842246700e-04
1.962811756639004993e-04
1.850781770963687983e-04
1.822199311270530225e-04
1.682824720508693805e-04
1.710161204356262787e-04
1.762261213234138021e-04
1.886128064974264620e-04
1.884975583123036508e-04
1.776353124122659680e-04
1.611410672669516195e-04
1.509110152108396330e-04
1.521299262700797142e-04
1.769200041183208172e-04
1.788554716150858592e-04
1.639835157975109634e-04
1.727488263598272664e-04
1.651987515401088721e-04
1.434623646588365636e-04
1.384061488496797498e-04
1.492390949230596592e-04
1.530139172551941290e-04
1.452175008229226322e-04
1.411317549603824731e-04
1.440206712158076732e-04
1.427913398980530310e-04
1.267933383936863806e-04
1.302156314998475714e-04
1.488758054793461183e-04
1.307964488820746035e-04
1.338442149220516603e-04
1.400200995508400423e-04
1.197982935175374852e-04
1.075089301324000032e-04
1.101396810299064971e-04
1.079207168798688998e-04
1.095677343786504235e-04
1.162812940593447794e-04
1.207138138910549691e-04
1.115631076318334206e-04
1.156738124748063479e-04
1.063408948954562561e-04
1.049654033517940718e-04
1.091372579770256285e-04
1.004938087806137720e-04
9.469172839048512619e-05
9.834487165648331253e-05
9.138477524010205771e-05
8.948964895580825002e-05
8.505945864381928012e-05
7.821467717080213267e-05
6.969428557512726691e-05
7.358008121565937087e-05
5.972665039192213976e-05
6.500169098787398486e-05
7.995268947549958455e-05
7.753870675192287010e-05
7.714716281902178618e-05
7.814160103898192683e-05
7.076628549847717442e-05
5.811370559247446693e-05
6.395166339737048261e-05
7.204930227694677364e-05
5.934046479041249489e-05
6.474495036789401636e-05
6.064427993230595698e-05
3.582207663349861598e-05
3.524380847210600853e-05
3.808511850449287917e-05
5.257850421858546036e-05
5.161402123568699374e-05
3.380260214744072733e-05
2.225534228821914040e-05
3.005532151950998654e-05
3.640437805233279200e-05
3.260379978938313106e-05
3.135032492837096924e-05
1.886644483405086614e-05
2.660348309286783564e-05
1.693267571514691511e-05
1.794713695290987843e-05
5.385896852441989652e-05
6.606163286083065189e-05
5.059511880881918666e-05
6.029593565800347305e-05
8.671414628161604882e-05
1.038510943761877109e-04
1.112792209351821937e-04
9.540139195004290057e-05
6.570538367327728030e-05
3.842260714505534719e-05
2.716704134875409793e-05
3.990691298615556964e-05
3.805994845796495385e-05
6.013158137499648170e-06
1.254453602319606509e-05
3.074245017728807761e-06
3.858894332728346477e-06
-4.442391419134418540e-06
3.341775218175697948e-06
-9.010971406654168236e-06
-1.773855999636676783e-05
-3.095997787489531555e-05
-2.984446289734307700e-05
-2.807691086922307205e-05
-3.827528842319325580e-05
-4.331287451190841270e-05
-6.049115420619140954e-05
-4.635700961197562059e-05
-6.778589044072885761e-06
-1.130438117116251695e-05
-5.866917866410338578e-05
-6.773111762893406496e-05
-4.156705363580603246e-05
-1.668120905887974376e-05
-3.394289922667957649e-05
-6.909350259327005916e-05
-1.012641965771766267e-04
-1.215222434529624265e-04
-1.135318502756112527e-04
-7.530538198333852629e-05
3.865179176034197472e-05
1.870407677697465132e-04
4.129880141714586950e-04
7.255789850513887085e-04
1.022809311893679678e-03
1.312244102308263161e-03
1.381424583859040996e-03
1.041114457018213306e-03
6.295685006242257228e-04
2.474737176415874387e-04
-5.056933713187307389e-06
-9.306669428095926816e-05
-3.037623811098354859e-05
4.932023235482054652e-05
5.479303895985013217e-05
1.171026121314037299e-05
-2.865730370757175322e-05
-1.336139609836410613e-05
1.140691788467391304e-05
6.912710502465432838e-06
-8.357096164060724697e-06
-5.931598077144831921e-05
-5.030805085562244094e-05
-2.939135158585952368e-05
-2.939460264560819075e-05
-2.983121651076257180e-05
-3.022665623293296217e-05
-6.216301448603439583e-05
-4.561296364789108049e-05
-1.123268318996284432e-05
-2.878058781084595619e-05
-4.016431248683033362e-05
-3.907559287691115407e-05
-5.249032362497022680e-05
-5.308410411001499712e-05
-3.378490373225160465e-05
-3.807756323831370388e-05
-3.608806104216707306e-05
-4.306745321741058119e-05
-7.014616633034716220e-05
-6.710851698539348209e-05
-3.297233703046260206e-05
-2.988590097949359731e-05
-4.204347711217904654e-05
-3.441149745137071086e-05
-3.196819624539260635e-05
-3.210013572699319667e-05
-5.166452105235565251e-05
-6.642482334538908628e-05
-5.051423096520159250e-05
-5.479846581060709987e-05
-3.634347975901234401e-05
-1.413983517971079823e-05
-2.112764768206088634e-05
-5.042980496649650951e-05
-3.643499781125127818e-05
-3.063992608857372263e-05
-4.767393019992991615e-05
-3.667029978603707219e-05
-2.514198620797662015e-05
-1.714887586544422415e-05
-1.429613087555736683e-05
-2.047508107679268247e-05
-2.506007461203912934e-05
2.560885308233815799e-05
2.845875393998366365e-05
1.689193589759878378e-05
7.203047510127673358e-06
3.312492316526541303e-05
3.844428717274077367e-05
8.665522062253384894e-06
1.971208700271565029e-05
6.089610209319799849e-05
8.351041044626049403e-05
6.733377030144691022e-05
3.685695561079973398e-05
6.272776889032320724e-05
7.283816538107296817e-05
7.166503237310620222e-05
8.150153421507874002e-05
8.570981487222243539e-05
9.049135345740640796e-05
8.494244616740788401e-05
6.990436782115631853e-05
8.430751770299466791e-05
5.726787754750314874e-05
3.468971761156573047e-05
3.485398181936674722e-05
-2.776148431550377882e-06
-3.185179199059317429e-05
-1.110185391192675119e-05
-1.680757764785118652e-05
-4.494909584236948807e-05
-7.364962927610112925e-05
-5.561964961454859274e-05
-6.184235937272981182e-05
-9.997271357122146374e-05
-1.340189715832379794e-04
-1.421250706242225062e-04
-1.537302909930676753e-04
-1.453827473532672693e-04
-1.266753545226297073e-04
-1.397934437471761923e-04
-1.516101152101252333e-04
-1.500751063512762579e-04
-1.583024474308128079e-04
-1.347133139436053340e-04
-1.064683506582231320e-04
-1.104183854708593732e-04
-1.337568277312555648e-04
-1.644289232521417218e-04
-1.778125113855479056e-04
-1.789262321977057660e-04
-1.627437483189683384e-04
-1.361250851495930669e-04
-1.478550153163026015e-04
-1.566164352465281018e-04
-1.317544220902685387e-04
-1.276894723996144926e-04
-1.487423241590115838e-04
-1.458718040800955837e-04
-1.477039075564812523e-04
-1.443494925834655496e-04
-1.452975838063105471e-04
-1.542553637725561921e-04
-1.378498000594837250e-04
-1.846788223681030544e-04
-1.871170145999658668e-04
-1.585652902737107184e-04
-1.541831238698878823e-04
-1.431023710409132579e-04
-1.483198091288663936e-04
-1.566969609763648949e-04
-1.914207452254242103e-04
-1.646812174542515092e-04
-1.247755591313589804e-04
-1.267322365481127547e-04
-1.331437241148120121e-04
-1.396909402194982178e-04
-1.813805124388345041e-04
-2.117920920364445812e-04
-2.004307810010838228e-04
-1.749880216242285028e-04
-1.640863452907143430e-04
-1.713900696443237254e-04
-1.448758569107047589e-04
-1.402776575183525484e-04
-1.581287965207317514e-04
-1.732482733297641825e-04
-1.745093417141792974e-04
-1.626342297335560058e-04
-1.442483287952198157e-04
-1.565582304006154710e-04
-1.488429936638098125e-04
-1.686120632721265292e-04
-1.687024043991259062e-04
-1.661045996384172968e-04
-1.800095163879888646e-04
-1.706854352012624615e-04
-1.630771132592728073e-04
-1.888811550857386404e-04
-2.050715713019135751e-04
-1.986385124940100166e-04
-1.908338259488003008e-04
-1.771035802945603033e-04
-2.012423098999719176e-04
-1.956717285605388476e-04
-1.688718561739287541e-04
-1.375976494090271410e-04
-1.387614133135112865e-04
-1.371526144599800531e-04
-1.708067834668668128e-04
-1.945061558213719705e-04
-1.924388770654780409e-04
-1.927100045370205156e-04
-1.881948390080809275e-04
-1.870991267164051966e-04
-1.800625042042910962e-04
-1.937986323643382108e-04
-2.076570468274850124e-04
-1.670095198605791448e-04
-1.513918928476064643e-04
-1.602879483078431186e-04
-1.638978320308301720e-04
-1.807185505809895051e-04
-1.810786960960023353e-04
-1.722218436323637997e-04
-1.656438397885113406e-04
-1.656115188426376603e-04
-1.349282199113602601e-04
-1.095415188938830484e-04
-1.130861412653900999e-04
-1.045926798975407510e-04
-1.064756480060871299e-04
-1.120949469872456472e-04
-1.010881769301251107e-04
-9.335824923925508528e-05
-8.655131285192907420e-05
-8.183780155490445046e-05
-9.010376164115315584e-05
-1.099999145336306300e-04
-1.338650938312660466e-04
-1.195001569455076199e-04
-1.441134038931450242e-04
-1.665859015868914259e-04
-1.523239361956221088e-04
-1.572454628504353635e-04
-1.643506848617876798e-04
-1.800482488775317913e-04
-1.847493892980422645e-04
-2.011492753444012183e-04
-1.893155643757698722e-04
-1.922816987903162855e-04
-1.798811463809895858e-04
-1.810683744903791859e-04
-1.788959719221444242e-04
-2.016818484092634117e-04
-1.882748907776178940e-04
-1.743352613832399936e-04
-1.595851410220007829e-04
-1.835232465118670150e-04
-2.367576391714603171e-04
-1.990259467949230879e-04
-1.584237421178901276e-04
-1.556842124261345259e-04
-1.835840735665119142e-04
-2.032044931925573381e-04
-2.382833488818974881e-04
-2.831276214786712479e-04
-2.193996355628058392e-04
-1.080949810443824349e-04
1.634464285981372667e-05
2.554843148615138643e-04
5.659284434726069915e-04
8.835124256494665540e-04
1.156737450975522247e-03
1.321519379034540899e-03
1.096329482229695465e-03
6.627426338866402450e-04
2.414825461310920671e-04
-7.109793543800656951e-05
-2.062828448496632251e-04
-1.747878795630552345e-04
-6.806449800432490260e-05
-3.644847290757997210e-05
-6.821810330655524862e-05
-1.171280138865735121e-04
-1.463368059800912099e-04
-1.174306075627483403e-04
-9.662085053535520579e-05
-1.055990288488396073e-04
-1.400860374960151769e-04
-1.299290441143892069e-04
-1.211273254623284820e-04
-1.153273679891132775e-04
-1.226790648809232206e-04
-1.266447153942945603e-04
-1.338230293339674748e-04
-1.441469466466026306e-04
-1.216872675544817053e-04
-1.055624429737705289e-04
-1.059269283313407292e-04
-1.141823100668905647e-04
-1.209693743358256426e-04
-1.225147716729319339e-04
-1.183137217222879345e-04
-1.040856205983906740e-04
-1.104394414247009820e-04
-1.216900427589671929e-04
-1.089276208685579367e-04
-8.124302894070307285e-05
-8.603882700815388557e-05
-9.893139070917510158e-05
-9.292858870244002922e-05
-8.446771474378451938e-05
-1.010726233546983821e-04
-9.163360294319952692e-05
-6.994690043853318134e-05
-6.759686476077823858e-05
-7.074921388558648438e-05
-7.294066525950857610e-05
-4.913283437365210948e-05
-3.911720928598781677e-05
-4.160622429527725125e-05
-5.178883954991622685e-05
-4.825237575368027110e-05
-3.383669229338644169e-05
-2.998847379357370835e-05
-2.061135651285073145e-05
-2.027487338796592903e-05
-2.446079726764038148e-05
-1.062558969166464001e-05
4.434201927002237587e-07
1.013339165091987210e-05
5.966065760843429489e-06
1.013546463576701917e-05
1.275780974675354978e-05
1.242858336477931785e-05
1.677784640221908347e-05
3.013602617538396061e-05
4.549555610950870022e-05
4.174926777682913537e-05
4.847387055963159330e-05
5.175856802121323735e-05
7.724761171558000572e-05
9.181043496054447361e-05
8.927705765162004259e-05
7.963508499310434363e-05
9.161823754383954105e-05
9.964104126565075797e-05
1.013752917502089637e-04
1.002111205421112386e-04
1.009504953670336755e-04
1.118240007635558364e-04
1.114339850913593707e-04
9.042182871595635246e-05
6.877455794801045491e-05
5.283885641580408910e-05
3.963994132801830494e-05
2.411696255791209026e-05
-1.000381095463305503e-05
-9.216071542143128292e-06
-2.069245744086047056e-05
-4.292416975764431347e-05
-5.758089270526799835e-05
-5.507014233126737712e-05
-5.034406373110103528e-05
-6.208723772642595062e-05
-7.508310242154009329e-05
-7.052956595562064057e-05
-9.108209773930463909e-05
-7.179131450502085343e-05
-5.448877808590137095e-05
-7.518746043387158212e-05
-8.583558721792471091e-05
-7.634896952916393753e-05
-7.765385143947058783e-05
-7.407983503735122988e-05
-8.060866289607161034e-05
-7.243458869598488198e-05
-6.805377388842404063e-05
-8.025245047173223956e-05
-7.137607825958083851e-05
-5.962433733256583546e-05
-5.978189895624892031e-05
-6.219483935173287376e-05
-7.334379288608319780e-05
-8.735868752345922472e-05
-9.532358937838075752e-05
-7.674289808652298706e-05
-7.162126814700981586e-05
-6.917597774392259674e-05
-7.142051194598906388e-05
-6.256274629732379994e-05
-6.069212353009955513e-05
-7.914033153234942969e-05
-7.139396318323575075e-05
-6.516984269745989405e-05
-6.797450590302449303e-05
-6.275317838390359615e-05
-6.763744858361703249e-05
-7.083778155047779079e-05
-6.419190598119448032e-05
-6.905284539965046015e-05
-6.508667540477876962e-05
-6.414267647356520358e-05
-6.929854237336125627e-05
-6.286551886989025228e-05
-5.829176894624026051e-05
-6.012135588895264199e-05
-6.280572809477542179e-05
-5.630063843014773695e-05
-6.430060519133432018e-05
-7.035655977148756041e-05
-6.567064087127996719e-05
-6.778045976551811541e-05
-7.095560664932207273e-05
-7.239530127950248584e-05
-6.823822669521032586e-05
-5.793120493042223929e-05
-4.608267749185192275e-05
-3.792007816872441234e-05
-4.695483919468345507e-05
-7.332703801799216742e-05
-8.339189773667529670e-05
-7.749670098117222850e-05
-6.346095914957355921e-05
-4.879732043261506697e-05
-5.136200968193591759e-05
-5.370190494231007194e-05
-5.360161811546800686e-05
-6.062862755608269122e-05
-5.679348712849408704e-05
-4.624094225081590986e-05
-5.853199711354766660e-05
-7.892029863652144650e-05
-7.049176242742566378e-05
-5.282359813543746618e-05
-4.973424602910687248e-05
-2.845900451668801484e-05
-3.015924806907578637e-05
-5.440057514848398168e-05
-5.269495521417234818e-05
-4.318094205501849664e-05
-3.485972021760510436e-05
-3.841851761510282209e-05
-4.020278702844028162e-05
-4.709274713255058586e-05
-4.128749179295281013e-05
-3.582936846358106969e-05
-2.827874519994739294e-05
-3.034767068675007368e-05
-4.361724698604633327e-05
-4.912162966660190561e-05
-4.612413776881527094e-05
-3.568191093885741266e-05
-2.582671449430015698e-05
-2.892540438707933564e-05
-4.134143741686864548e-05
-4.815722634322460588e-05
-3.462191111445241803e-05
-2.593894323828747905e-05
-1.693271130898729021e-05
-1.561757946073882852e-05
-2.207320135116843524e-05
-2.473238891797027716e-05
-1.592323120948140047e-05
-1.498583135940093763e-05
-1.412476987807352591e-05
-1.091503501548813510e-05
-1.592798298756786107e-05
-1.655315861113278858e-05
-1.891027205639956438e-05
-1.693608599176357060e-05
-1.786602163372959240e-05
-3.625252671998844406e-05
-3.582235220725253633e-05
-2.687214127733081326e-05
-1.315687107597118127e-05
1.249385543265150306e-05
3.396719966183674166e-05
5.316089306687393767e-05
4.993222917616408491e-05
5.428293051610872527e-05
5.400082379380423403e-05
4.367829427826940697e-05
4.500895334878188964e-05
3.067653135284311577e-05
1.415668479754807196e-05
-7.130850965107564388e-06
-3.251919238062266765e-05
-2.137481739687783350e-05
5.244105643844969300e-06
3.063126073834902818e-05
1.583765575808443460e-05
-9.961714189683258669e-06
-1.636175687340628987e-05
-3.260791510824746081e-05
-2.507988084245529881e-05
-1.050693862223762987e-05
7.310270352389736104e-07
-1.356190567078710552e-07
-2.535688870124955946e-05
-1.334513278749161619e-05
1.667709562581769223e-06
9.683134712881388828e-06
4.974582533724854205e-06
-3.007755648745669141e-05
-4.215430008784864374e-05
-8.197134819349846668e-06
1.019532456853714658e-05
4.496768234837390799e-06
-3.296357738952291477e-05
-6.159897291699821531e-05
-7.885520168618258274e-05
-7.753782792733251300e-05
-4.827819488943500825e-06
7.115740935600880362e-05
2.123454858746470081e-04
4.776989337919607809e-04
8.033460032730007153e-04
1.103557374395559496e-03
1.352471733546079836e-03
1.325972128151611633e-03
9.369764861893907851e-04
5.710221854682137263e-04
2.137586785147128216e-04
1.217381406957724482e-05
3.122525613873366329e-05
1.005538975373757721e-04
1.471553973391740919e-04
1.278832211407737382e-04
8.659989090810307072e-05
6.336212131949955223e-05
7.060316690178387172e-05
9.172727623002734781e-05
9.935525521742160499e-05
6.981391887930874646e-05
5.527867549166669281e-05
6.960876027254335463e-05
7.944847587784600179e-05
9.472734750242718660e-05
8.510047232462934069e-05
6.009996062200997913e-05
5.225052261918598784e-05
6.498108362288333717e-05
8.519552485948544973e-05
8.141778414720319407e-05
7.801267517497465637e-05
7.855214882651357505e-05
7.522280722030687955e-05
8.094299522355685728e-05
9.061199359137322995e-05
8.703410395187547582e-05
9.623806577038415688e-05
8.888360251766910802e-05
8.853692401883817703e-05
1.023457144918226910e-04
1.074545719408773539e-04
1.071198270504204741e-04
1.024301106283369289e-04
1.205636149484616906e-04
1.298097919041540579e-04
1.378820111907850393e-04
1.334280348596582344e-04
1.244016986693555551e-04
1.275897154612943771e-04
1.413087171892989796e-04
1.528839927312508618e-04
1.579736486705977591e-04
1.629652810316130698e-04
1.684398135699989585e-04
1.808686388598190406e-04
1.873820827025998031e-04
2.031039417608659567e-04
2.075082833422675285e-04
2.076715810164818724e-04
2.019912023394718897e-04
2.090210035001777850e-04
2.314956623030066732e-04
2.360781059305080976e-04
2.370664763134827657e-04
2.446055328479317462e-04
2.517131602660007544e-04
2.668732310749238890e-04
2.795490372026424725e-04
2.969749892634317850e-04
2.972077326834406813e-04
3.034894638090342503e-04
3.087641628431144272e-04
3.145018655149583314e-04
3.254178918558909422e-04
3.341085669333939551e-04
3.436622633277560887e-04
3.403685967111455199e-04
3.378946006924263973e-04
3.459393359398826515e-04
3.446913756466876352e-04
3.392016456007463862e-04
3.345711220672335784e-04
3.316691167142673050e-04
3.303046154081827612e-04
3.145925128925875988e-04
2.951626613455909931e-04
2.780648273823420683e-04
2.584354684131108179e-04
2.401717267372155060e-04
2.127600002684660110e-04
1.910074981637819094e-04
1.855192823404430008e-04
1.853269388314756488e-04
1.778603517258873015e-04
1.633931688083496356e-04
1.637225145339820873e-04
1.467213092692593382e-04
1.300520422555639238e-04
1.152929939925205829e-04
1.168124524196026415e-04
1.207254914715235466e-04
1.186399772818355625e-04
1.080873038446983000e-04
1.120964563493948019e-04
1.273123233777474078e-04
1.256226601266795945e-04
1.274003408421094802e-04
1.309191903844410254e-04
1.298052772741318042e-04
1.200599016098116006e-04
1.319402516057914185e-04
1.351996133170775896e-04
1.292387578736963610e-04
1.260650808867520151e-04
1.350588425703281442e-04
1.419312980726877144e-04
1.312084507417371829e-04
1.260210724650595929e-04
1.387560492779752255e-04
1.281841465954371151e-04
1.185243715290185476e-04
1.255038417723140787e-04
1.384837104263948043e-04
1.340020389374125750e-04
1.372557636472211684e-04
1.294087612361289469e-04
1.310534342207417269e-04
1.389549820408186170e-04
1.350769238086160090e-04
1.191248994516945145e-04
1.122055749852553588e-04
1.217447066180392737e-04
1.267154959817091628e-04
1.332695343213025768e-04
1.307380145454421425e-04
1.366373103223513658e-04
1.254328996558203013e-04
1.178760974065214823e-04
1.247666866236304614e-04
1.251670137337223057e-04
1.276364437789740541e-04
1.239847284976282674e-04
1.133353323926238401e-04
1.086030506487053668e-04
1.205933268727246363e-04
1.313480624569700328e-04
1.292984301478616871e-04
1.218233743912533126e-04
1.156857614075480420e-04
1.122580848724567815e-04
1.180478564536367736e-04
1.133064190148493772e-04
1.190103722451827176e-04
1.258684263659871211e-04
1.153874439599467117e-04
1.090126936411283873e-04
1.069730825550077591e-04
1.076365059277557823e-04
1.040284387398707558e-04
9.711126077252985739e-05
1.024035185982347107e-04
1.093073685933722977e-04
1.086219471667648762e-04
1.251104932129699226e-04
1.223931952671689083e-04
1.241995617877657970e-04
1.143863166325979203e-04
1.161199243359120961e-04
1.161273680461583774e-04
1.190027104395552718e-04
1.312052970460931417e-04
1.333770249277253100e-04
1.314955395852815401e-04
1.331205505613114112e-04
1.215380507039679620e-04
1.261154149069503710e-04
1.335319512904909259e-04
1.362344264919769857e-04
1.281216562666921688e-04
1.185196921920364174e-04
1.206134544421266080e-04
1.161340122413272516e-04
1.158013174733449335e-04
1.241343722424102097e-04
1.295349534952451587e-04
1.214687358537464359e-04
1.133958819587756184e-04
1.214841412549754265e-04
1.381532649735927806e-04
1.404032866075318603e-04
1.416073200483109612e-04
1.343421540926162394e-04
1.252675608377036218e-04
1.232034322168175725e-04
1.203050923140689538e-04
1.201441333865431102e-04
1.307263201086421300e-04
1.307745568576591105e-04
1.313681156999077504e-04
1.288145091244289123e-04
1.403703700685009215e-04
1.310352988046136966e-04
1.273110605743612428e-04
1.307800057929048299e-04
1.238000342945310556e-04
1.467069928827212724e-04
1.516133969971427201e-04
1.420186271922588978e-04
1.455586769292197685e-04
1.371870480064395215e-04
1.356206142380245172e-04
1.338861131926763134e-04
1.441157400268360325e-04
1.487209116532682562e-04
1.446417152308893117e-04
1.445157378778790316e-04
1.486137701097707889e-04
1.461650425556926605e-04
1.311007214349589611e-04
1.382686362403542230e-04
1.446203008594881823e-04
1.430872127768205437e-04
1.482915040227229114e-04
1.563303130297649668e-04
1.454359437396161511e-04
1.368841387999839704e-04
1.311639807815723896e-04
1.332668159739541433e-04
1.439134408191518680e-04
1.508183483107982184e-04
1.659276866263553404e-04
1.751042718427372677e-04
2.054041378881758806e-04
2.143760682829119399e-04
2.056822683347428807e-04
2.130726953421041223e-04
2.072304370168316645e-04
1.982666404426762161e-04
2.004586077042659620e-04
1.873605090613843227e-04
1.664657611388110220e-04
1.384988812329927474e-04
1.352405061746881146e-04
1.522657287960542741e-04
1.757788188312230104e-04
1.842772102045951016e-04
1.741232071623749142e-04
1.570988946740766237e-04
1.493188196380361085e-04
1.508770456214413025e-04
1.669419900516121852e-04
1.663970188006645701e-04
1.536930720463835012e-04
1.464690162729783904e-04
1.427643494804273216e-04
1.523562397016771028e-04
1.677766420207487535e-04
1.568700625135584920e-04
1.336774864342717833e-04
1.145359739112353226e-04
1.439753823889037068e-04
1.842478300489187176e-04
1.746952354411985403e-04
1.547449541235415213e-04
1.107808959834770748e-04
7.975389924332748626e-05
6.184686805968658135e-05
1.048969485164773230e-04
1.630499117456930130e-04
2.709065018837372718e-04
5.179390975331545424e-04
8.392117711088940488e-04
1.160454278798427052e-03
1.435400263660875121e-03
1.490466918695278024e-03
1.128761061181545768e-03
7.660047743031743461e-04
3.951910756318458701e-04
1.611229777642199379e-04
1.517742708086050607e-04
2.321077982873568507e-04
2.949754764827979339e-04
2.980227813365191394e-04
2.461391924912089899e-04
2.047090127775142571e-04
2.172330847099160009e-04
2.337654471473125939e-04
2.280493142675114535e-04
2.133775185426912621e-04
2.011468501495871503e-04
1.967485062175384353e-04
2.114567383132356926e-04
2.362080986581908959e-04
2.270108297137730935e-04
2.124962601902664200e-04
2.087034756589863441e-04
2.129836884878100883e-04
2.237364272768896378e-04
2.376872333059425885e-04
2.304250830810709166e-04
2.188757817503271183e-04
2.276330069908337819e-04
2.395592698213877547e-04
2.495881217008059233e-04
2.544540759550186285e-04
2.611070145966199255e-04
2.487440969308691088e-04
2.477986800147376906e-04
2.573399879032137530e-04
2.592961833662336610e-04
2.616299106873503852e-04
2.517149540249390138e-04
2.575371507729466020e-04
2.657789774991418941e-04
2.717951897604521661e-04
2.772342985120574213e-04
2.772806132856830627e-04
2.819215082843643319e-04
2.826965754816231080e-04
2.885537768673035464e-04
2.922563017600781493e-04
2.779528391327803355e-04
2.845276318961522874e-04
2.956239505436169743e-04
2.993722215131602513e-04
3.154003812805231816e-04
3.134766558305010498e-04
3.088594192052962137e-04
3.057214428281778903e-04
2.966892138625736378e-04
3.264679203435266394e-04
3.451658065829468422e-04
3.538145992221710529e-04
3.657943613857746190e-04
3.731996262025883207e-04
3.820901073696234690e-04
3.850208938320567875e-04
3.889664640669655490e-04
3.884133388552561336e-04
3.987568541162769473e-04
4.025588194187645213e-04
4.086226275640501837e-04
4.225883532944394935e-04
4.440794311743523001e-04
4.405517744846534564e-04
4.387975387992616022e-04
4.448585213280634165e-04
4.544407226453684237e-04
4.503809816214310660e-04
4.514887013171075755e-04
4.544724128214315886e-04
4.535954627189961452e-04
4.454215433005517810e-04
4.320865599426381917e-04
4.195999523546227808e-04
3.971777402853116437e-04
3.884075505799118588e-04
3.772169623068701363e-04
3.571644746866477205e-04
3.453591573441081725e-04
3.266175936379681760e-04
3.044401069871782370e-04
2.910778967537032413e-04
2.817364804888443375e-04
2.757976292967409537e-04
2.757138161143899563e-04
2.644344848454936378e-04
2.547893109916491566e-04
2.500027362648147775e-04
2.504096603944978155e-04
2.496026137864025898e-04
2.488794387068326078e-04
2.468207668653290762e-04
2.411693724846094081e-04
2.419083917716870202e-04
2.405369608670816090e-04
2.442170273936747002e-04
2.565757796201672408e-04
2.594004350145668117e-04
2.639391685339553817e-04
2.637474971447194283e-04
2.540267425478765634e-04
2.546347329380202820e-04
2.618022117554441239e-04
2.588628468246393852e-04
2.613302106229432875e-04
2.631313967129782216e-04
2.558948053100864109e-04
2.574255455297718917e-04
2.616731683137227954e-04
2.662067034261981005e-04
2.716050458758520122e-04
2.715670158819627478e-04
2.672740043253470088e-04
2.570610467804842689e-04
2.611733186349031455e-04
2.637022373996331451e-04
2.620496128314256726e-04
2.643072153573249386e-04
2.625738569596147015e-04
2.590047875537177316e-04
2.527474427158268866e-04
2.557457324356502554e-04
2.574404691845083581e-04
2.507949557753715378e-04
2.485597140929980339e-04
2.550316344087670203e-04
2.509142630266096921e-04
2.495531688156927760e-04
2.504684785794089597e-04
2.508330615840570835e-04
2.487441728446773345e-04
2.486096579358675757e-04
2.495161551926798615e-04
2.485372413667643124e-04
2.409320305699590159e-04
2.449461998704884416e-04
2.437244807055897675e-04
2.342393291373265699e-04
2.390980937804444359e-04
2.389890632787878069e-04
2.385797492822326615e-04
2.460963051902501433e-04
2.457230455595533006e-04
2.533178313204337978e-04
2.500615465041303512e-04
2.414921476172685044e-04
2.486139618014795646e-04
2.480924369035264823e-04
2.563630932128227805e-04
2.530754272049209191e-04
2.534652486650083164e-04
2.442615358643493786e-04
2.335841083173665830e-04
2.383748196242985173e-04
2.448503600567470198e-04
2.392464565126716652e-04
2.410777925119962639e-04
2.394782172428569500e-04
2.454893528557513388e-04
2.462042988924462508e-04
2.415870717839196588e-04
2.360571298343589960e-04
2.379905595362424159e-04
2.338764742924855436e-04
2.260909241675263318e-04
2.342962022154277194e-04
2.510533726373699592e-04
2.591602640019024031e-04
2.577466415133776792e-04
2.596962516045629374e-04
2.613027747332069897e-04
2.597567369504458559e-04
2.527855204757121707e-04
2.483025470799652551e-04
2.474362946179222561e-04
2.567136905623603263e-04
2.657811305650237266e-04
2.584442168842111462e-04
2.496321134770893360e-04
2.568228018093466486e-04
2.538329465183166919e-04
2.618456557978007457e-04
2.596152048475221241e-04
2.655943284655300218e-04
2.742445274999671945e-04
2.691227040278699675e-04
2.699757770792616043e-04
2.638654776627230233e-04
2.637578266025163501e-04
2.687416871995492937e-04
2.590939941798089605e-04
2.456251229865508146e-04
2.580417076930132184e-04
2.764499251450931380e-04
2.628823983003491724e-04
2.581472339245327596e-04
2.646301103074281957e-04
2.613844126947992633e-04
2.619350104221141590e-04
2.578217609134365179e-04
2.614138952932842236e-04
2.759786998387334794e-04
2.655070562528911299e-04
2.766794510047380570e-04
2.755541930420908961e-04
2.646530200827593507e-04
2.624397988339934734e-04
2.622234298030323707e-04
2.636210661752730680e-04
2.632961504986349247e-04
2.602585442601969973e-04
2.581857614585474428e-04
2.632659415848278422e-04
2.613230119277928920e-04
2.688605751078642150e-04
2.763943606580677656e-04
2.805602627829664047e-04
2.669879579558585153e-04
2.499346375958626590e-04
2.498789935614365021e-04
2.532326867360551112e-04
2.651113086713117670e-04
2.741608241205043331e-04
2.919301116202158153e-04
3.217521651193572252e-04
3.352224949857880720e-04
3.349207944055316438e-04
3.289520895876328621e-04
3.176853380790498407e-04
3.063145750186804794e-04
2.943106953889086663e-04
2.881687919902547329e-04
2.701219301563728345e-04
2.520152228423925070e-04
2.452797256821785676e-04
2.570129991536886441e-04
2.707435958417166166e-04
2.853823278273978636e-04
2.848298129895700942e-04
2.726519342096857951e-04
2.613177392285590678e-04
2.567115396653633572e-04
2.568283524507350077e-04
2.580496124938653005e-04
2.532997001068902285e-04
2.404205919980390016e-04
2.454485507800106825e-04
2.612755534894799919e-04
2.738150556242137379e-04
2.758495228964465140e-04
2.453823647033288868e-04
2.363836807530786399e-04
2.514101875871303793e-04
2.799649315426925439e-04
2.749581911023453798e-04
2.347869510135602855e-04
2.153723468082107545e-04
2.006604571408053192e-04
1.756412004288165907e-04
2.029271326059222183e-04
2.535595161858627059e-04
3.169173101408035570e-04
5.278177427760757587e-04
8.568002071487812107e-04
1.200431092172780760e-03
1.510965054496418193e-03
1.653457705179600147e-03
1.301543204772735718e-03
9.255363180863309530e-04
5.542200212770463305e-04
2.768756202720804374e-04
2.510180863001662196e-04
3.339051730875041910e-04
3.980089935528927786e-04
3.983995955070540607e-04
3.460062659724821507e-04
2.961104715296716816e-04
2.980095034874610457e-04
3.310885733109891760e-04
3.494469717026209288e-04
3.294026166155497592e-04
2.993009166479265737e-04
2.940454999929165841e-04
3.128242826586462300e-04
3.207467837948434902e-04
3.156576577380831861e-04
3.038585581581175477e-04
3.044970548503117200e-04
3.118517148882424955e-04
3.148976378944201918e-04
3.170019062252301886e-04
3.235146902002905903e-04
3.155994419869294354e-04
3.129961005635230678e-04
3.180179685583700913e-04
3.241982911540439508e-04
3.350298683375291936e-04
3.238382095671022906e-04
3.211325053221227022e-04
3.312082687198991335e-04
3.462471197135360071e-04
3.544038964176064732e-04
3.443627379131723731e-04
3.253717212404810474e-04
3.283710973152245000e-04
3.440396070956142083e-04
3.506941006435303210e-04
3.431658446628833500e-04
3.424538966601596915e-04
3.463963274173966975e-04
3.540720275513400961e-04
3.585401863371836043e-04
3.779973463262460351e-04
3.972083466988150791e-04
3.896251967180526521e-04
3.863169795247714533e-04
3.915798699945082645e-04
4.030586502875611876e-04
4.129157128820162490e-04
4.024187379378148938e-04
4.112874217890999384e-04
4.109558267538782061e-04
4.115850668478882382e-04
4.174554682150923013e-04
4.116395212355487485e-04
4.132609118432861370e-04
4.280633670527824938e-04
4.234594190094158675e-04
4.302153378024815844e-04
4.419077476374849711e-04
4.485778591992615680e-04
4.545927986957503525e-04
4.719753617350962160e-04
4.828205552308631465e-04
4.965750615701864171e-04
4.929025307058030117e-04
4.918084487490126042e-04
5.028157721951483083e-04
5.108095778357749778e-04
5.184640503928406724e-04
5.183487731737004833e-04
5.129293236433461398e-04
5.012296001928959882e-04
4.973859045858458269e-04
5.034929170726438682e-04
4.914314091823300187e-04
4.764566102113476989e-04
4.573345226226823226e-04
4.323430445367995589e-04
4.193319519206874582e-04
4.078630273342915766e-04
3.973304427653898824e-04
3.864335309246907588e-04
3.741794015203435408e-04
3.512028229390139200e-04
3.342745910699914183e-04
3.398787288362379450e-04
3.282393621005415263e-04
3.053472334912264372e-04
3.078773495058971174e-04
3.139671540189677840e-04
3.126029046082515195e-04
3.129375226690652573e-04
3.325202658419103285e-04
3.198442452321675900e-04
3.137870159571785542e-04
3.139056021996553328e-04
3.130800158552809326e-04
3.047733763762378381e-04
3.035647411839962131e-04
3.011708271801255207e-04
3.028818109143084289e-04
2.983579408994295121e-04
3.015854496478068830e-04
3.127028660340211777e-04
3.153442378144195868e-04
3.102582397115378338e-04
3.083428825939628359e-04
2.986768532329880585e-04
2.932514130377702338e-04
2.976023174087660469e-04
2.885035711194250396e-04
2.922922225916859545e-04
3.057347589839574942e-04
3.025054476505058612e-04
2.925613313037407279e-04
2.860533800857645997e-04
2.920801077378257227e-04
2.931430798612643523e-04
2.889139452909922010e-04
2.962937919581123611e-04
2.945581891415421580e-04
2.912777351130931697e-04
2.918218965613870314e-04
2.798685582126540089e-04
2.882905458007154614e-04
2.930470194197273837e-04
2.893437354875771569e-04
2.862468046744646305e-04
2.785235315756820484e-04
2.722661558297303705e-04
2.669397324137892311e-04
2.668497669625269006e-04
2.666387592921695346e-04
2.737160918566839546e-04
2.768834318511862250e-04
2.689012014119350827e-04
2.656526186365967129e-04
2.602541090960504636e-04
2.550189723994353633e-04
2.575034353644329449e-04
2.575962977354653155e-04
2.529488743960054895e-04
2.506618994341149737e-04
2.569041129190331382e-04
2.530561964174940157e-04
2.584368109022055354e-04
2.661858720599636838e-04
2.658977089575170066e-04
2.589558317461458647e-04
2.500880824753710235e-04
2.424247284885114664e-04
2.428683853262399162e-04
2.364358361315729504e-04
2.400465307338690152e-04
2.429638191023012969e-04
2.341508220542300525e-04
2.273320591779769834e-04
2.229845363265342550e-04
2.334047635311449834e-04
2.381450933633061720e-04
2.499546458340374394e-04
2.505817478098675694e-04
2.481913752212178484e-04
2.515455082705850623e-04
2.414313542337303067e-04
2.381842822770730353e-04
2.422632861404736687e-04
2.423724148873929174e-04
2.390810086560883618e-04
2.240609096371267914e-04
2.304549630741652838e-04
2.337870068028526094e-04
2.313749951777599803e-04
2.414794630521081148e-04
2.466229742351961490e-04
2.518082885439370741e-04
2.455666737143169867e-04
2.386368350343788525e-04
2.268671232577941163e-04
2.178126390959354147e-04
2.207052420714729693e-04
2.172807029655289199e-04
2.234216713070729873e-04
2.169501036698813154e-04
2.191162892376903246e-04
2.248461236747717126e-04
2.200437371163320097e-04
2.301379296681411307e-04
2.241014458809423987e-04
2.185692588702473418e-04
2.138892710962479737e-04
2.074124899778938963e-04
2.106174777593431205e-04
2.125926429248706229e-04
2.146851332339655763e-04
2.201618285025529892e-04
2.121957640096178155e-04
2.182326797589952475e-04
2.238946356692261136e-04
2.196096031827224695e-04
2.084820800688181805e-04
2.011289328532166187e-04
2.027977075023442571e-04
2.029420317838665638e-04
2.034566324758775233e-04
2.061652175293412353e-04
1.915247049512278088e-04
1.902710061438663350e-04
2.032473707203469315e-04
2.127025482335925810e-04
2.232265675421200510e-04
2.060446030042175844e-04
2.033723756392352700e-04
1.888143728305492416e-04
1.854866678300398641e-04
1.897168864927840579e-04
2.116944391455776592e-04
2.232532748767659600e-04
2.328492629636762581e-04
2.516792748476484251e-04
2.630754214089058018e-04
2.820776072693124623e-04
2.763556511174800751e-04
2.513608435037034683e-04
2.276728814229224407e-04
2.103841775831461966e-04
2.078506809941264161e-04
1.965332123658883670e-04
1.707708519048936266e-04
1.649274025247501191e-04
1.854043024038295323e-04
1.912216212983791630e-04
1.904013699248864946e-04
1.776776021306875411e-04
1.674337044650963183e-04
1.583951178338923599e-04
1.483364727600938737e-04
1.608190403976630586e-04
1.728727374992822599e-04
1.772766966432167204e-04
1.617458091494970024e-04
1.473828747136128950e-04
1.573188708786747714e-04
1.776142164455520034e-04
1.814632069943138137e-04
1.465474956683530602e-04
1.293627197240581825e-04
1.473391902079533577e-04
1.840896192343653009e-04
1.970990672599277210e-04
1.562399494880939085e-04
1.235807456766054024e-04
9.517540272629704950e-05
7.894661806875230559e-05
1.108944760530826412e-04
1.814589923930104431e-04
2.839799765688268487e-04
5.035989101796652101e-04
8.476568121157587732e-04
1.173800211287849213e-03
1.502134027336130342e-03
1.687590225635748897e-03
1.399376418160089806e-03
9.587216796018956447e-04
5.456595052475265301e-04
2.388415127007031263e-04
1.222460447588523402e-04
1.707433551341912617e-04
2.584984518679616858e-04
2.845016424747872849e-04
2.401323559052762763e-04
1.975080456614449961e-04
2.019558743929453920e-04
2.148048596979992841e-04
2.206054734506133694e-04
2.140608886003723954e-04
1.831955237493023206e-04
1.633035138969849212e-04
1.914361026389274287e-04
2.121146673931140897e-04
2.093843767838653516e-04
1.919275000324812894e-04
1.812756452843101995e-04
1.956609670114772478e-04
1.954289221664769552e-04
1.856031435244947028e-04
1.857799752788581726e-04
1.900283840342966227e-04
1.909348542365992343e-04
1.995497326362817569e-04
2.077568410737374791e-04
2.107488388548399427e-04
2.099119618289317299e-04
1.948694923872571275e-04
1.945836466757215610e-04
2.060717357768330690e-04
2.169127734968053292e-04
2.129134716211114262e-04
1.874586489328065181e-04
1.965400765709564290e-04
2.065717569483807234e-04
2.182643719206567301e-04
2.238791489486717176e-04
2.204630328372968531e-04
2.244642405322431686e-04
2.237871750319954389e-04
2.292978581426245027e-04
2.294667628025826023e-04
2.288192846791716265e-04
2.288328122914320278e-04
2.316453823293547487e-04
2.485067416325087777e-04
2.528627440328678339e-04
2.439314244547666558e-04
2.450598035227862306e-04
2.495638275192271424e-04
2.569603687844349352e-04
2.593767148642333112e-04
2.627692492229464702e-04
2.749490751158467292e-04
2.637001388586966352e-04
2.540821464853343717e-04
2.780468271440751302e-04
2.977595509169195936e-04
3.009573760728093128e-04
2.922606035234680960e-04
2.846716649347880157e-04
2.963812831571080789e-04
3.135387417916831246e-04
3.122155177218899000e-04
3.227593651604684227e-04
3.211222701483074440e-04
3.342952865268786905e-04
3.526727403836416030e-04
3.523417755327135081e-04
3.701434796442070255e-04
3.597226044483523011e-04
3.402396759425710057e-04
3.274550542575705922e-04
3.231452950126197446e-04
3.317564992138212140e-04
3.199251398006376298e-04
2.984518739286377148e-04
2.938430928293997782e-04
2.803305927861800273e-04
2.731630816942441295e-04
2.764865829204335435e-04
2.492316825917001086e-04
2.305446431828950260e-04
2.043085209779129871e-04
1.799199491202760348e-04
1.904624182454553796e-04
1.811503323254706754e-04
1.651926733456186153e-04
1.681464678927732312e-04
1.593730627726689872e-04
1.600828532262498285e-04
1.581312218739147971e-04
1.505254780546040269e-04
1.406487296174074517e-04
1.435630944963944139e-04
1.485970491562739818e-04
1.504010685532417360e-04
1.604924520894985759e-04
1.705005680627180373e-04
1.482555241537992716e-04
1.261550695918082013e-04
1.273459113138161389e-04
1.362421612668097623e-04
1.344108124609506849e-04
1.330804171372585928e-04
1.427808409036751547e-04
1.393422680887853107e-04
1.420076021828317950e-04
1.411882052983846197e-04
1.487098512389399205e-04
1.404346183171353846e-04
1.476311839220994029e-04
1.469532484226539898e-04
1.397473776742624851e-04
1.380019020663795018e-04
1.261142505887043880e-04
1.252723661745733588e-04
1.320565195128010211e-04
1.280530659219991305e-04
1.470449296337794989e-04
1.529343529204979166e-04
1.351847500683286268e-04
1.360885759409957707e-04
1.360542774097549257e-04
1.320918686375750425e-04
1.361305855370996409e-04
1.252448520926941963e-04
1.067134391139019575e-04
1.136546344969588049e-04
1.194103439606805997e-04
1.259680935940940202e-04
1.453829945722226458e-04
1.396614207082392048e-04
1.187388244964227013e-04
1.161216230823386084e-04
1.105960518290724157e-04
1.126369853383397263e-04
1.249092286569252960e-04
1.182544263671611237e-04
1.131015068145529989e-04
1.019062496542466265e-04
1.201259868473325901e-04
1.207697752572296779e-04
1.213056765331683995e-04
1.199953601365650116e-04
1.094714865956178396e-04
1.029635862627208479e-04
1.008481958519012733e-04
1.072141663526829380e-04
1.093537000371640547e-04
1.086083561915732534e-04
8.813845454980900884e-05
9.985418967698150156e-05
1.165002731812730258e-04
1.138375783678244324e-04
1.135629808184032696e-04
1.144309407292345288e-04
1.113355890306659893e-04
1.157708267341232833e-04
1.244105755987909984e-04
1.417682070242445511e-04
1.334161977948949626e-04
1.214316119671366573e-04
1.125315528848315830e-04
1.124262836253537776e-04
1.200823859077975592e-04
1.265722309327027909e-04
1.357487622659367746e-04
1.299832732359982451e-04
1.245579136927611741e-04
1.279155743010408977e-04
1.184756031223678507e-04
1.194236722600831163e-04
1.178697543741521678e-04
1.185761616713503636e-04
1.241920642454227494e-04
1.330240719913753505e-04
1.343691461070991439e-04
1.174391046630434213e-04
1.180383847356287694e-04
1.181337608031195890e-04
1.315989741331987165e-04
1.436343768144244040e-04
1.425570396845245169e-04
1.290069401276711103e-04
1.129271112890852316e-04
1.140876971498314824e-04
1.217519147416988579e-04
1.369581490193580095e-04
1.459113587634307263e-04
1.593696969686315967e-04
1.807266626272898205e-04
1.799469240772880521e-04
1.825754932097065075e-04
2.086281051650335644e-04
1.996101816044253130e-04
1.747885194670149162e-04
1.671280109125381289e-04
1.638661104418929690e-04
1.607843804647783592e-04
1.440660416057570198e-04
1.131821191468623811e-04
1.196344804981356105e-04
1.470245582190716008e-04
1.511957883194720020e-04
1.405505155749097249e-04
1.230972010061726074e-04
1.158235740833200855e-04
1.090198716530233272e-04
9.731095521280617999e-05
9.858587427089698929e-05
1.128206718758696311e-04
1.016277478076794624e-04
8.642070527281955905e-05
8.949137607861326615e-05
1.087970026034329810e-04
1.357958991579436003e-04
1.322236686924650045e-04
9.704569950850280152e-05
8.402735342253036394e-05
1.252832313482256377e-04
1.429490191967820387e-04
1.119379541661700075e-04
7.152638098757366225e-05
4.185244287844593070e-05
1.584900936418224410e-05
3.519612685377870864e-05
1.124163434468219286e-04
2.078980624328347071e-04
4.070325809811571605e-04
7.310244172417318734e-04
1.069982908996161899e-03
1.357006726910242947e-03
1.633332463322238574e-03
1.527182631925086236e-03
1.091904820364495397e-03
6.607486743498277790e-04
3.012951180762528033e-04
9.916839096933346975e-05
9.204698804000498863e-05
1.868207898231433878e-04
2.400282367546130793e-04
2.344160680310273040e-04
1.809675809428482746e-04
1.551754746369187615e-04
1.709343426666929538e-04
2.023534652027380448e-04
1.983889704880465593e-04
1.720343291504644254e-04
1.571617801478988191e-04
1.609857237508194663e-04
1.878290276325573008e-04
1.960439942350900022e-04
1.937983703593814180e-04
1.779989905758526392e-04
1.611070525476439308e-04
1.675461412272271494e-04
1.857344571676560613e-04
1.981970356770513739e-04
1.936604225692148754e-04
1.868725092205036908e-04
1.870597253259033421e-04
1.769282177463494046e-04
1.798934742957506577e-04
1.826429467678032659e-04
1.894862429450347441e-04
1.880312855181394752e-04
1.817780571179827137e-04
1.852673332732573258e-04
2.003246436979716494e-04
1.990677562211098581e-04
1.981604462163635144e-04
2.008233504262654096e-04
2.222026840079903420e-04
2.250335907251323556e-04
2.289298694326509856e-04
2.304031745331037995e-04
2.459065371795609786e-04
2.517551816712884638e-04
2.538244729742246061e-04
2.607605387217448029e-04
2.573844834900251843e-04
2.653151066414885170e-04
2.798119058238001181e-04
2.680610101113969565e-04
2.726608795500622129e-04
2.778577794044223559e-04
2.820804086769920782e-04
2.948543977360782234e-04
3.119531898345571583e-04
3.150405838688629181e-04
3.100612373000090002e-04
2.993257881534752349e-04
2.988877398570717256e-04
3.092056557092185895e-04
3.304230708678669581e-04
3.468674367960548899e-04
3.485420515049143450e-04
3.405399188042010708e-04
3.378741603241343372e-04
3.442315975498511441e-04
3.547010877456490893e-04
3.657075703951675680e-04
3.662770033870527131e-04
3.724622866642553209e-04
3.776393712494451743e-04
3.862812283196006766e-04
3.952240799046267614e-04
3.996393939232371559e-04
3.951904564781566140e-04
3.945296727427948652e-04
3.953024889511384116e-04
3.977136138936972209e-04
3.904159412130786891e-04
3.763293070887007222e-04
3.555710552742476910e-04
3.321705323184476893e-04
3.097562239633457060e-04
2.946952688539557913e-04
2.884717797359583058e-04
2.773708063172645663e-04
2.588820563885017162e-04
2.496675567744332733e-04
2.547890925903946099e-04
2.466524962231354812e-04
2.376428363416735814e-04
2.330776431244225774e-04
2.263991358364050160e-04
2.210785665698973210e-04
2.182925750211948610e-04
2.203234421031940310e-04
2.232238838706527076e-04
2.255808667727503269e-04
2.198444198641289968e-04
2.210010456605753307e-04
2.175878692280619128e-04
2.158402441976726288e-04
2.196857952131607908e-04
2.171611099928520694e-04
2.223251187914816393e-04
2.247662887600579071e-04
2.216808709464956201e-04
2.182464817221596229e-04
2.208865814505170735e-04
2.135422590196474693e-04
2.111964990873099746e-04
2.148070600062343752e-04
2.150401231509014785e-04
2.007478735069952863e-04
2.065721737067620009e-04
2.110745168062188107e-04
2.105292945118594425e-04
2.241687012976339641e-04
2.304747424667014447e-04
2.270338032222315311e-04
2.313703890075213473e-04
2.232575405883034311e-04
2.170066429381138293e-04
2.149227882527870309e-04
2.154177321116359373e-04
2.128453905082469677e-04
2.133262255607660390e-04
2.160344936440227251e-04
2.141225187411669589e-04
2.192999424839667949e-04
2.161671796080382596e-04
2.228660341116661323e-04
2.186256281681122141e-04
2.082418657705165446e-04
2.135181738631116224e-04
2.160813878230010560e-04
2.097737273855683482e-04
2.138687421516342890e-04
2.254750872948798127e-04
2.232374934097464819e-04
2.135596856878618430e-04
2.117813016512121171e-04
2.165021098109462874e-04
2.139174312874338180e-04
2.188843303411363087e-04
2.208583202534071185e-04
2.155946909038024273e-04
2.139942592064960139e-04
2.164824377887961462e-04
2.109683074814029322e-04
2.134478050164756446e-04
2.180382640172146003e-04
2.187511932920521707e-04
2.079132519470809279e-04
2.058602423931120765e-04
2.208247174880243954e-04
2.211458433311209310e-04
2.193817861569063304e-04
2.188885621793980676e-04
2.106078506532568437e-04
2.102721413956808172e-04
2.161585251039986263e-04
2.279185307505803351e-04
2.371892621842288176e-04
2.308651436055816561e-04
2.156623063822738634e-04
2.084288145435871792e-04
2.039011346928855731e-04
2.088520025957879903e-04
2.089715972115298651e-04
2.173977656406726397e-04
2.172676550671066159e-04
2.072646055147654709e-04
2.112342166526708781e-04
2.241647858515233988e-04
2.265395471608500425e-04
2.237955795796808464e-04
2.300508274827020236e-04
2.209502196582908279e-04
2.228666150934210249e-04
2.241059177916183628e-04
2.178567671168194983e-04
2.110214571925577223e-04
2.106750981228800584e-04
2.139396190291610600e-04
2.194547710061382773e-04
2.160371524662398068e-04
2.193003479394207283e-04
2.228753448922310768e-04
2.138225205090566600e-04
2.096185213630160846e-04
2.087897411853171376e-04
2.111886720547080654e-04
1.955656859128898292e-04
1.954802410169698829e-04
2.024547543767202945e-04
1.986266183197551299e-04
2.092358706151835682e-04
2.341835182270764898e-04
2.471622725479932781e-04
2.635304772547553478e-04
2.713152990643221893e-04
2.905841612954231795e-04
2.926553396407341120e-04
2.770336430201391850e-04
2.717418492875420255e-04
2.690129400172505680e-04
2.605079576554402906e-04
2.276531299509887418e-04
2.027806928276629228e-04
2.117560801663974021e-04
2.182732313345796954e-04
2.219784170036549764e-04
2.249769039085547720e-04
2.153249189274786257e-04
2.064501898708590022e-04
2.049228245646576158e-04
2.040846697668654425e-04
1.959601860632423018e-04
1.977567819072241842e-04
1.835330672170206248e-04
1.668321501022774003e-04
1.691466872802121352e-04
1.987480122331297672e-04
2.145154309877239998e-04
2.134832675605123631e-04
1.856414663107212176e-04
1.614592895170336925e-04
2.033618199546597186e-04
2.287914101545300213e-04
2.258580103215862556e-04
1.875371831407592754e-04
1.357262305077414424e-04
1.165052404649155951e-04
1.010295344223968370e-04
1.288938115071728077e-04
2.041448326213510592e-04
2.883351520663454334e-04
4.931498438460069772e-04
8.203708520346875491e-04
1.169221028037664874e-03
1.470577391111266459e-03
1.643692543977230865e-03
1.339037928367524735e-03
9.329435945190827154e-04
5.565474861245495869e-04
2.577049963752428216e-04
2.028846447377496975e-04
2.772394990291993447e-04
3.388061912592962507e-04
3.559268699223879298e-04
3.103512896056540710e-04
2.515538747879450532e-04
2.498079284027395625e-04
2.796468836481465561e-04
2.947828513704779663e-04
2.717229607275732997e-04
2.504143525360741362e-04
2.398556976578800071e-04
2.493293289082248315e-04
2.764752569897497778e-04
2.705731923299389483e-04
2.558336889713647838e-04
2.427614999235341853e-04
2.503505322329745847e-04
2.676451190818602069e-04
2.732859622134624009e-04
2.705687318321284285e-04
2.746214933390944690e-04
2.734525992110405784e-04
2.735177093038830207e-04
2.887570324110449310e-04
2.883227519288799820e-04
2.877433852609845993e-04
2.764791420243051245e-04
2.643768925411470877e-04
2.711335305084078273e-04
2.889848560608636319e-04
2.920464772773944881e-04
2.805109678677645407e-04
2.813492291850738791e-04
2.934857229215867558e-04
2.945002663368142051e-04
2.982642761413002719e-04
3.002252215205782407e-04
3.005396346601662758e-04
3.095191004993096823e-04
3.294443292812809787e-04
3.439039321934235852e-04
3.423444589736980917e-04
3.414387196858182164e-04
3.514057711641281612e-04
3.484624893418187055e-04
3.540012932755267488e-04
3.650257510974209627e-04
3.684506618038957404e-04
3.697855633701041186e-04
3.677658640291918760e-04
3.757613471227138832e-04
3.850665331028369290e-04
4.043609912169135456e-04
4.069207856171918117e-04
4.028410548470697308e-04
4.202082993980957651e-04
4.168777655563088436e-04
4.216104164238799676e-04
4.349523459746193477e-04
4.334411441515835864e-04
4.419444461238129090e-04
4.492549150254595419e-04
4.683114424079469831e-04
4.631637232359519726e-04
4.658225341618851476e-04
4.730740738471518950e-04
4.870465388502175780e-04
4.890490551321593354e-04
4.851736530025541408e-04
4.941117617583328306e-04
4.892894062429025553e-04
4.788462033742764065e-04
4.695648240500014184e-04
4.670061219256014043e-04
4.556570519534935276e-04
4.350595979542605518e-04
4.128082821029397179e-04
3.884555001482858580e-04
3.650285625562584013e-04
3.562384944657201458e-04
3.428426217598912890e-04
3.296417350971570653e-04
3.159909302477099599e-04
3.017955265830736880e-04
2.910817493714428286e-04
2.912451396637526571e-04
2.747608738695251143e-04
2.750984061279711929e-04
2.788660169942150727e-04
2.657014072006439950e-04
2.640894215977362264e-04
2.605193047965975381e-04
2.664841567953414592e-04
2.746492548451268459e-04
2.576547092855161272e-04
2.533847898368432258e-04
2.474342366126040110e-04
2.508205395273235480e-04
2.543251947813652061e-04
2.573156746550342433e-04
2.692437439065862442e-04
2.683211995028085550e-04
2.619054758168952099e-04
2.548453676806013146e-04
2.677560605648899791e-04
2.757969816558581908e-04
2.653101653504403093e-04
2.747311374704354894e-04
2.689938422067708265e-04
2.547649279540063760e-04
2.511474513642907372e-04
2.547530526525810038e-04
2.544411831382842673e-04
2.534688106098576324e-04
2.559769421000427161e-04
2.543781906246310801e-04
2.590804162279532197e-04
2.522133184505110162e-04
2.469525442537973473e-04
2.520426869849577006e-04
2.575956625272260089e-04
2.586663311223615785e-04
2.541373164431500950e-04
2.511587517673814426e-04
2.457598006157472176e-04
2.479638907247564555e-04
2.457453702713364996e-04
2.451510240725571915e-04
2.558598817669743147e-04
2.551162472633735148e-04
2.486945104152732400e-04
2.523958887143927521e-04
2.510705265305014297e-04
2.519109886814320173e-04
2.442391201046825375e-04
2.319788308167754914e-04
2.285730342060044926e-04
2.377028999677645998e-04
2.462835107167760801e-04
2.382855019661513432e-04
2.478794838750089657e-04
2.401533751856211804e-04
2.309828956215459125e-04
2.381048464517527066e-04
2.403389256453170031e-04
2.402367112137922950e-04
2.439702320435471750e-04
2.430647703089072395e-04
2.356791344494645057e-04
2.343630975182647500e-04
2.326437137923666187e-04
2.348254443904681382e-04
2.343101108694444282e-04
2.364571515064564991e-04
2.352344599573239284e-04
2.465340224704036520e-04
2.414958063626116563e-04
2.361607948426075465e-04
2.249361741748362453e-04
2.198342330175092826e-04
2.213704334090658282e-04
2.227578822377391035e-04
2.229424527233157122e-04
2.274974672257781480e-04
2.491474911539420800e-04
2.498775483673072034e-04
2.374439923944872757e-04
2.436751049157614632e-04
2.392281320196679509e-04
2.323157733594288787e-04
2.392328052141018055e-04
2.385282635753108865e-04
2.379854178431398820e-04
2.447965309191535085e-04
2.336013023142421638e-04
2.241143163548712028e-04
2.282019228062081087e-04
2.381706053539876453e-04
2.334529568677381345e-04
2.372773935325972819e-04
2.435609300801182611e-04
2.498939381258653489e-04
2.554196798654102818e-04
2.501950057077614517e-04
2.404840738243459522e-04
2.366558328608632869e-04
2.431975367937731780e-04
2.451209617320027762e-04
2.380784829652468626e-04
2.401199613711914316e-04
2.381207990464276336e-04
2.246938204440952422e-04
2.291436139472344258e-04
2.435838650605356981e-04
2.538288146374852866e-04
2.529663069769406969e-04
2.417192301327458076e-04
2.409810214068991777e-04
2.389172395318300834e-04
2.391039325471359250e-04
2.433346090542397658e-04
2.331562614737575645e-04
2.266813315530283660e-04
2.211136741020634441e-04
2.254809803485776157e-04
2.356246116290020357e-04
2.543335261506341621e-04
2.765600013078465397e-04
2.928687727885440420e-04
2.857524432693945085e-04
2.928998401905127599e-04
3.061114923790624054e-04
2.837838042290046978e-04
2.791133105480561247e-04
2.901152313771662022e-04
2.674734458125030759e-04
2.421557746476645651e-04
2.179514814459318148e-04
2.164287097020526143e-04
2.221760905966024130e-04
2.374822695120244742e-04
2.523304031765019953e-04
2.448262722962142937e-04
2.334954833623495082e-04
2.238014249058874194e-04
2.322669030219437492e-04
2.311050119687407811e-04
2.313255064614206519e-04
2.287574570547607974e-04
2.138519797953899321e-04
2.054066202454149156e-04
2.178181618445896445e-04
2.337766103135069731e-04
2.304306431566011115e-04
2.148804691319301102e-04
1.973702361040040668e-04
2.157024994158297793e-04
2.513817816742862365e-04
2.558939706785393758e-04
2.089093431305224374e-04
1.768755060908150378e-04
1.626309786136904967e-04
1.427414480612851713e-04
1.643638802520212827e-04
2.223700944634417892e-04
2.681379055932252981e-04
4.536327232843957377e-04
7.612526669611248062e-04
1.098638448590151875e-03
1.417228128274342948e-03
1.628242854623113828e-03
1.346345754811626057e-03
9.563163712354542934e-04
5.967651376472338579e-04
2.753321409076012194e-04
2.018911317052700036e-04
2.795505112503345393e-04
3.431660529524000608e-04
3.652397212757386297e-04
3.286743049406197839e-04
2.824062826798428780e-04
2.768826384747244754e-04
3.054883625916229861e-04
3.109053552388637079e-04
2.857902579824099162e-04
2.653418582068516052e-04
2.590026356296022680e-04
2.739468689689529557e-04
2.923990441052355671e-04
2.958419260830113043e-04
2.741268835156638120e-04
2.709560848195066013e-04
2.817159967321127348e-04
2.994102231454595295e-04
3.125524336745387835e-04
3.047585922045350018e-04
2.947293823782684563e-04
2.832110494285040511e-04
2.829707597718153500e-04
2.949622563706453746e-04
3.052801352075775604e-04
3.018057739973007553e-04
2.970722589290437921e-04
2.999727547972541250e-04
3.060822857871813019e-04
3.219028095410936610e-04
3.215436974370591491e-04
3.213928422829363113e-04
3.190616844608593419e-04
3.175783586039336581e-04
3.287762963850981296e-04
3.322717343172808951e-04
3.230873755867107178e-04
3.278991980732127651e-04
3.415855552137579340e-04
3.525090206317306810e-04
3.550856908101571174e-04
3.492632179394371608e-04
3.466854063160383290e-04
3.447148190916481114e-04
3.466222781297470870e-04
3.584347821092240954e-04
3.664705257565596327e-04
3.667506101834175705e-04
3.682350437154910394e-04
3.651167762279503709e-04
3.686429808212841885e-04
3.867564963850479015e-04
3.930218122614494158e-04
3.953605081498893364e-04
4.062807304851647275e-04
4.015256414687182196e-04
4.115346026275492827e-04
4.072344038214010392e-04
4.055330702268699142e-04
4.137622457930610620e-04
4.272116125622433744e-04
4.433387566870625532e-04
4.568545550559010085e-04
4.636042314454420776e-04
4.708410909963758537e-04
4.712036734280259168e-04
4.735691700007722132e-04
4.767828272817390203e-04
4.888627002904415847e-04
4.807781164684254635e-04
4.656326270191845154e-04
4.793279284505064589e-04
4.709655217846444100e-04
4.529044517247397122e-04
4.460994251630516147e-04
4.405934049214179846e-04
4.293961391541988720e-04
4.240625339112366263e-04
4.034065260152888688e-04
3.857299677855197118e-04
3.694484017991396183e-04
3.493469373528519661e-04
3.302711567425582057e-04
3.338882872773703617e-04
3.469497992218024962e-04
3.280011909135120696e-04
3.067393684084039271e-04
3.023389097003290407e-04
3.005378476203472010e-04
2.972186040031002743e-04
2.935070428749797511e-04
2.903110179985658734e-04
2.857332752977982671e-04
2.931609870378774213e-04
2.929516700282859543e-04
2.985353886319867811e-04
3.030939981509672004e-04
3.008760680901180137e-04
2.882550974610195715e-04
2.883443088262816617e-04
2.917547820349124937e-04
2.984167601019355187e-04
2.993564968752767882e-04
2.881769324129430931e-04
2.883013828283769939e-04
2.867145797715679734e-04
2.907935940687630602e-04
2.990486680126613547e-04
2.923450472476635253e-04
2.864898733005065770e-04
2.866937765491966647e-04
2.847499628553309958e-04
2.851149707166844918e-04
2.864117643400047875e-04
2.844772304504963531e-04
2.836476073824418034e-04
2.876444858642898672e-04
2.909119914570766283e-04
2.833584566530739091e-04
2.808992596691302010e-04
2.832527053207916853e-04
2.775462906305196931e-04
2.708472002668571924e-04
2.774927851653171545e-04
2.895947314222116487e-04
2.730251160321531603e-04
2.622059782038908826e-04
2.642371873339682820e-04
2.753526614979826675e-04
2.796631789604500651e-04
2.724696410399121346e-04
2.711277453899697126e-04
2.752130125201236732e-04
2.695480578041474160e-04
2.624329805376579561e-04
2.702228225341489487e-04
2.737179482836865282e-04
2.726883905278462694e-04
2.605829173790621262e-04
2.603578099629284479e-04
2.631539125736116411e-04
2.614634277618866492e-04
2.593915639514431451e-04
2.657054186727438039e-04
2.688770950729814369e-04
2.724037406038768913e-04
2.810892646985469270e-04
2.679461387978645040e-04
2.558264113544529011e-04
2.602809369797827108e-04
2.563521055443810162e-04
2.556533688179768102e-04
2.579814232711637872e-04
2.625302306888772572e-04
2.596151369786059079e-04
2.585133544197705871e-04
2.585430452125298678e-04
2.642445129452664077e-04
2.661851768542642521e-04
2.616522078134351018e-04
2.563849464387469440e-04
2.543804873202356112e-04
2.546946383414766535e-04
2.611263881566313824e-04
2.529326166116931118e-04
2.572786160571233910e-04
2.638493849667902444e-04
2.615508018618652522e-04
2.588705490703226489e-04
2.598724053018775307e-04
2.571850558061349393e-04
2.564908451382109933e-04
2.542733149206791166e-04
2.622954866710941121e-04
2.629161088108936464e-04
2.557242723735669854e-04
2.565249642483904968e-04
2.504655455427507935e-04
2.477218436145265518e-04
2.496975355642415059e-04
2.532143261349149507e-04
2.507561259243677038e-04
2.607095727178068006e-04
2.668542667232966237e-04
2.691689200674919971e-04
2.608612170626346122e-04
2.415975735116874384e-04
2.393695005845457302e-04
2.305843269948390159e-04
2.406587677355959479e-04
2.490275064173418443e-04
2.562241885669912234e-04
2.484198166868992544e-04
2.296934522368490952e-04
2.288226986986380621e-04
2.354983115539447530e-04
2.468211956745715308e-04
2.493688980529269739e-04
2.405549436303557401e-04
2.424926060148610910e-04
2.476493839649925727e-04
2.408565032221586175e-04
2.533196835950409301e-04
2.479299963468201834e-04
2.454475291413594010e-04
2.334386822850226251e-04
2.192948050363536378e-04
2.291800840171619863e-04
2.429478963259790181e-04
2.601667653672201652e-04
2.781885694780354343e-04
2.986703812313607279e-04
3.079771204441252366e-04
3.133035175914532233e-04
3.026441837388621492e-04
2.852082721219563813e-04
2.729838262812223429e-04
2.691909498344427498e-04
2.556379197108070433e-04
2.373343609816036190e-04
2.183552244647817692e-04
2.264204030149302022e-04
2.419803394627028856e-04
2.419805015984157273e-04
2.422585745451687894e-04
2.396864354018693119e-04
2.249857858867328891e-04
2.212309385751023982e-04
2.181281183704043489e-04
2.192665519684840192e-04
2.233295189290615892e-04
2.071586309209064863e-04
1.973742526453145518e-04
1.998118960643965533e-04
2.153686049265034902e-04
2.226273671245603339e-04
2.076761692587332855e-04
1.860190935803369972e-04
1.895854665808329245e-04
2.310489941747444556e-04
2.485478323002773132e-04
2.305405577490930030e-04
1.925010003322224009e-04
1.494461793311186587e-04
1.304524373525392522e-04
1.322411345933451055e-04
1.952576245195557572e-04
2.524863714227533473e-04
3.632864921629284580e-04
6.363592527539041477e-04
9.725505150992609649e-04
1.304226968283106816e-03
1.636756638172644565e-03
1.651361082341553342e-03
1.255006262195147888e-03
8.593992122954150284e-04
4.502429632807398996e-04
1.943049529483219934e-04
1.679528888045307006e-04
2.497297204025906298e-04
3.257758744173843563e-04
3.287677636750743412e-04
2.805156386505120933e-04
2.501851788392741097e-04
2.555332030757823808e-04
2.704665883899535356e-04
2.701591026757705141e-04
2.567451853897522243e-04
2.343925101129101796e-04
2.478735415353174737e-04
2.665600123518555367e-04
2.655239185383496958e-04
2.517118637407325318e-04
2.445316235155066756e-04
2.345124989421958073e-04
2.428549384189127025e-04
2.693944278931385133e-04
2.778409335640200442e-04
2.707676369490593510e-04
2.506303200231112596e-04
2.443979060119724073e-04
2.482849842275723640e-04
2.433646228377694606e-04
2.509529706655961104e-04
2.541013448412021009e-04
2.462687758158117746e-04
2.462766054213390635e-04
2.651736482017115482e-04
2.678736101860649393e-04
2.638407223598850104e-04
2.646627376683193672e-04
2.727602793301166922e-04
2.754934247295535293e-04
2.812059212177250161e-04
2.841103246217988043e-04
2.712240085071702597e-04
2.714052460636318803e-04
2.804901392429995019e-04
3.042152868076150249e-04
3.056904504484892274e-04
3.005028901478089959e-04
3.053416297295529977e-04
2.999418459902203349e-04
3.023159345619860078e-04
3.028752669263622826e-04
3.083889753753808749e-04
3.154888906191817555e-04
3.180675773818714830e-04
3.206361551486335351e-04
3.373103739336717408e-04
3.453854697153162581e-04
3.539046633037881348e-04
3.535468310368683822e-04
3.417272971329571307e-04
3.517483195250902320e-04
3.626666693014131068e-04
3.590482509189122165e-04
3.586963130277689982e-04
3.604822371172031192e-04
3.758060452271824725e-04
3.869281463411890915e-04
3.918827656218485528e-04
3.967231335183230012e-04
4.062605711149533741e-04
4.038045830820746057e-04
4.041106024703965474e-04
4.078135019662107105e-04
4.109680380328852717e-04
4.131513056040555729e-04
4.057257342130107108e-04
4.070994248051304845e-04
4.015029134389631188e-04
3.880635528401782733e-04
3.872673130318436685e-04
3.762747327736458078e-04
3.464926468283004504e-04
3.326453354749086058e-04
3.189833802624709308e-04
2.989841565084038616e-04
2.780092848036546868e-04
2.624864249356267595e-04
2.597721997760898960e-04
2.589929275275040105e-04
2.420638652111811728e-04
2.324778098404560109e-04
2.358839986569723213e-04
2.331397460617994077e-04
2.235430581022310181e-04
2.236633882023685016e-04
2.113306502021204680e-04
1.961922540994918626e-04
1.947067565356338376e-04
1.991495888066666456e-04
2.082526657136690024e-04
2.173768684254322875e-04
2.197533031125893307e-04
2.111780015553515674e-04
2.042883177776648115e-04
2.064883948224242177e-04
2.015991844370092906e-04
2.128834773385867088e-04
2.180877887197245693e-04
2.023181299184457355e-04
1.960837369370128230e-04
2.081407036060717308e-04
2.079882680655160618e-04
1.998858737409211009e-04
1.854242702253967520e-04
1.956881542635874327e-04
1.912834483874890218e-04
1.856632568496630400e-04
1.850234821487873466e-04
1.985787473062633479e-04
1.957801452597560457e-04
1.854134923651509781e-04
1.787743721076272968e-04
1.820410597747458906e-04
1.885240453697581073e-04
1.835706134101370082e-04
1.879693419144746677e-04
1.835128694889142861e-04
1.896603414206169541e-04
1.937905091607839553e-04
1.759276754414833277e-04
1.873607867111546851e-04
1.764010742256729922e-04
1.758724136201924443e-04
1.757715121416076817e-04
1.733508996364539409e-04
1.818625244677770161e-04
1.842208233766712278e-04
1.809927933138230985e-04
1.718572808927336382e-04
1.620289906097503035e-04
1.515071796677593466e-04
1.668532459674224380e-04
1.736487774519675925e-04
1.756095301981451182e-04
1.809986808183226478e-04
1.720187522393605561e-04
1.580466304553053772e-04
1.466668568528934832e-04
1.649250104601646463e-04
1.743946512701476451e-04
1.678336161765022275e-04
1.721713471872707291e-04
1.678646032879102870e-04
1.491264541800567042e-04
1.437257269388571290e-04
1.572207079446226452e-04
1.550443399926876645e-04
1.547975143775769113e-04
1.659282505767512711e-04
1.710885603576836611e-04
1.664912896430633879e-04
1.639027045473272215e-04
1.555358503159114808e-04
1.482624028084659693e-04
1.522257618045298050e-04
1.582327857330718263e-04
1.445733383914418746e-04
1.415740295204409929e-04
1.439985034386338791e-04
1.423647920849998791e-04
1.454809616997640095e-04
1.548078758214846418e-04
1.589271099662224393e-04
1.456487152170565444e-04
1.288635136862167213e-04
1.347554981538370486e-04
1.476992254576623559e-04
1.514216149309192266e-04
1.551564328402584708e-04
1.477482510118489564e-04
1.419225192984549869e-04
1.380366341972695879e-04
1.570992421675698053e-04
1.648593422621802418e-04
1.573004016733126412e-04
1.549106307205819558e-04
1.534677797980603386e-04
1.476068252811071208e-04
1.556594030910594950e-04
1.488454996828141030e-04
1.273708726796905777e-04
1.273862458207666859e-04
1.234187945862936023e-04
1.353573202345489598e-04
1.618494223466545451e-04
1.844005779356372096e-04
2.035504990707337827e-04
1.927913669155182502e-04
1.950475025101552906e-04
2.103246838584156564e-04
2.244476622203428126e-04
2.115482619398723410e-04
1.994322803540501260e-04
1.814428370999453255e-04
1.764427156980552525e-04
1.584426001376027654e-04
1.492613835835602393e-04
1.469595875315896777e-04
1.659989352129527529e-04
1.721548534764768754e-04
1.461361491650672861e-04
1.225257416528789320e-04
1.183297044985544624e-04
1.217981113464869369e-04
1.126239989188123139e-04
1.195443533955585502e-04
1.321075696019699888e-04
1.214266297314388690e-04
1.052120344447573033e-04
9.029323683199582534e-05
1.063352922767886455e-04
1.350178123450942666e-04
1.299689328328260118e-04
1.114634678394572920e-04
9.056131134206439615e-05
1.080246963624112780e-04
1.500663833497633062e-04
1.477744628156120454e-04
1.122160593631602726e-04
7.613513526567427386e-05
4.889995738331133490e-05
2.651010805366713075e-05
6.935618982462175147e-05
1.623634572031646545e-04
2.842671065294748514e-04
5.206620475870478784e-04
8.495273038813663455e-04
1.160596394376091529e-03
1.453046239417437636e-03
1.575120413742021712e-03
1.289953257453109979e-03
8.634756940378166337e-04
4.604023404764980704e-04
1.709749515260462760e-04
7.049859713210981926e-05
1.228788164549798889e-04
2.087165397248623086e-04
2.249361046528846816e-04
1.937285026599056686e-04
1.538246558293191249e-04
1.426154276742844576e-04
1.681886367048404315e-04
1.766128114051926379e-04
1.572900986257508293e-04
1.357427477775155836e-04
1.264487995646761120e-04
1.438657177706709894e-04
1.726631717880186892e-04
1.572842895390313619e-04
1.377325355779350849e-04
1.279338179797874162e-04
1.341700411984572683e-04
1.394834507095583584e-04
1.520648505191190408e-04
1.648178588737414865e-04
1.513458316677552748e-04
1.516511923138931517e-04
1.509978701321936650e-04
1.415554281833002540e-04
1.410245000959819972e-04
1.381527424690739622e-04
1.339351102139438310e-04
1.432125853300233662e-04
1.429400154108161070e-04
1.615087715416190992e-04
1.553954703117114630e-04
1.329511554918876709e-04
1.240739859279240895e-04
1.493017561185906034e-04
1.753457313827611400e-04
1.678675762236186628e-04
1.683421208125406715e-04
1.686514092615618368e-04
1.583298948630747216e-04
1.600722843283306634e-04
1.610550389829932746e-04
1.669071276421537839e-04
1.795490949357617105e-04
1.751747838260823281e-04
1.721598942687014785e-04
1.748904083043525959e-04
1.759372427833144278e-04
1.773854621939813941e-04
1.844766438115008969e-04
2.085886493675588593e-04
2.084200123653344103e-04
2.173580349163544909e-04
2.041904045993287939e-04
1.965361442541639289e-04
2.026384972468597834e-04
2.214973471029463986e-04
2.306584927744669694e-04
2.446063376910371026e-04
2.395553917339480338e-04
2.299299781351026722e-04
2.345911010469357155e-04
2.546568807379493912e-04
2.528633481368109184e-04
2.448703572549160851e-04
2.476673807273194888e-04
2.507430834979128970e-04
2.612018914015731830e-04
2.885773408167766410e-04
3.071077503767789818e-04
2.949694904033793239e-04
2.876568668349647681e-04
2.839041838802172299e-04
2.794702092598589857e-04
2.722435983133764115e-04
2.771764934314750045e-04
2.518631741623283959e-04
2.329770045595156228e-04
2.241085168777140132e-04
2.135551474802604641e-04
2.090378596167853306e-04
1.838935553785244967e-04
1.612095129477257929e-04
1.407411590151957589e-04
1.335094277407286589e-04
1.517498581799937157e-04
1.394164274851634328e-04
1.340658533401858921e-04
1.262612661344971604e-04
1.066185214001792725e-04
1.088572056908735861e-04
1.193071143225131817e-04
1.118613179127217472e-04
1.142799869198454429e-04
1.033062422607297637e-04
1.000689909360832214e-04
1.146513948732195282e-04
1.269545463802642521e-04
1.192604220336792101e-04
1.308091052154682424e-04
1.230558815402682526e-04
1.146989808007382525e-04
1.129109485878167229e-04
1.116735121174045400e-04
9.713410548455991139e-05
7.728054846481598184e-05
7.878553693815588260e-05
9.059675245374869401e-05
1.021329289276834765e-04
1.130715252035431606e-04
1.158901029383102230e-04
1.012373055398804039e-04
1.041936987558212541e-04
1.004898087141065793e-04
1.112690183392335552e-04
1.166961608482430454e-04
1.102800756142118671e-04
1.111368518532098934e-04
1.018748376457045968e-04
9.833805476572050203e-05
9.522182638486628714e-05
9.695942022898331597e-05
9.599100409438902221e-05
9.368250014962515443e-05
9.097565303379552548e-05
8.981654918929424247e-05
9.510136780941248064e-05
8.529880149620895635e-05
8.549364382307456794e-05
9.306324341164934344e-05
9.281425325474539079e-05
9.933389536487952087e-05
1.034346725946435133e-04
8.993939055072699279e-05
7.670978662999410752e-05
7.470616972939797540e-05
7.417981470759886509e-05
6.550361186669680785e-05
8.052650733599356347e-05
1.022152378220043956e-04
1.072875397661954625e-04
9.920796066304003041e-05
8.631213076331582107e-05
8.646487962476676059e-05
8.496173616732386608e-05
7.673894087162781014e-05
9.020689121327918336e-05
9.743569586872710686e-05
8.255701970830749831e-05
7.325515941487836802e-05
7.559533433700894867e-05
8.631019086641298493e-05
8.836043830034740615e-05
9.520148278975917866e-05
9.918024938785578032e-05
8.860352535354325265e-05
8.301938188619555764e-05
9.566741873606732227e-05
1.025419947297189979e-04
9.752588507016060615e-05
1.014842639148472170e-04
1.010835806642450610e-04
1.001989938012289375e-04
1.027367116645016079e-04
1.018203692876480659e-04
9.066974628042095974e-05
8.625498288111852624e-05
1.051440089432295610e-04
9.527759557699695681e-05
9.248741988642818213e-05
1.051012497973024401e-04
9.598494170449424490e-05
8.700436043003727943e-05
9.824831253976446660e-05
1.100737535513042833e-04
1.131750425879280569e-04
9.917675882073918175e-05
8.343655156186832733e-05
8.141063272828433922e-05
9.247370041641327088e-05
1.058761749102897845e-04
1.280956882202992711e-04
1.380140119299436835e-04
1.580534683351536573e-04
1.680545524909522401e-04
1.730839781954969167e-04
1.885065840492279945e-04
1.809878233854774962e-04
1.766258816479548618e-04
1.646252126000198948e-04
1.569650378713798727e-04
1.540252407142899890e-04
1.241349097287035297e-04
1.142442924619499478e-04
1.022212794338003133e-04
1.143144049044007154e-04
1.195816369935955720e-04
1.287572920968121926e-04
1.192429352557524899e-04
9.577529375770672815e-05
9.273039087684571691e-05
9.985184022236973794e-05
1.008578096768309937e-04
9.393363735286843624e-05
9.377340600509338070e-05
8.353521843241108052e-05
8.149207344907219430e-05
9.643307502567744632e-05
1.156720357030488477e-04
1.050158644785477435e-04
8.244518217668736493e-05
8.107384195279402489e-05
1.058042603965516845e-04
1.432512397548813682e-04
1.345832162022251449e-04
9.008294416771190499e-05
4.671416188444226653e-05
2.086512432928743638e-05
2.150733705683343516e-05
9.803698512667134018e-05
1.934842605688718783e-04
3.584936680830234576e-04
6.521509443703932957e-04
1.007944237406408969e-03
1.311795913867192138e-03
1.589757222433853256e-03
1.560852793654543720e-03
1.159728750167532754e-03
7.362285696287133516e-04
3.556346892213489014e-04
1.170723522615413001e-04
1.001907826795591858e-04
1.828993888272319526e-04
2.432726585148339143e-04
2.329714561322008062e-04
1.897731300735646179e-04
1.566227481387258078e-04
1.637717612850758328e-04
1.760064841133781102e-04
1.771249353086402911e-04
1.649720851260097487e-04
1.393456695470401269e-04
1.490132010486767619e-04
1.838382521152743740e-04
1.801795246887481078e-04
1.690090820825962750e-04
1.650859451534257213e-04
1.596368137850969274e-04
1.709697402417272721e-04
1.906680064331558316e-04
1.919068151699770269e-04
1.797558860349235746e-04
1.670523072255991268e-04
1.688278841172358852e-04
1.771325431265124983e-04
1.915799087742692600e-04
2.049920017313669809e-04
1.892645854364083044e-04
1.877372736256450320e-04
1.976970220465982045e-04
2.087711136721775301e-04
2.114673842401595602e-04
2.272083108577757291e-04
2.209615976467649637e-04
2.067994296866158474e-04
2.257363504905816887e-04
2.308500189447150464e-04
2.270565796969117867e-04
2.290495499333031551e-04
2.301583476122604291e-04
2.398198071760261618e-04
2.404760417083285154e-04
2.524197496903595253e-04
2.543519996301589134e-04
2.489646444547161108e-04
2.640573548736840914e-04
2.778567381874000319e-04
2.753830006282801182e-04
2.755323306640735867e-04
2.832123207858715241e-04
2.969342988201392058e-04
2.892021358699365177e-04
3.043848919953998436e-04
3.219014471735493627e-04
3.180441911396674273e-04
3.133527772346276011e-04
3.161091363561114795e-04
3.310049090416797984e-04
3.414972471117490999e-04
3.509928360993222127e-04
3.527892622631773750e-04
3.625032806025578133e-04
3.687441327020375692e-04
3.799102654104234700e-04
3.820459032060638874e-04
3.825622223580030234e-04
3.818175062143573315e-04
3.868816459226499457e-04
3.979604363209500104e-04
4.105366968854143664e-04
4.110928045237263392e-04
4.023081369517083131e-04
4.074448612141554071e-04
3.973574482131073463e-04
3.869266776965344171e-04
3.970719074637201959e-04
3.913766046966344822e-04
3.752861098949671070e-04
3.544719176456108400e-04
3.385780092237103064e-04
3.224894215243245821e-04
3.077732593686913556e-04
2.852106693956961425e-04
2.712800042025459088e-04
2.626104137485761256e-04
2.585427429344002576e-04
2.596230052789218895e-04
2.600943944126143242e-04
2.554741514996933249e-04
2.458875376131304177e-04
2.354865448806467074e-04
2.372919683871948029e-04
2.359417077375958877e-04
2.396702517439260396e-04
2.461260924321887963e-04
2.554964836737816034e-04
2.461695394004575349e-04
2.498590339554867049e-04
2.556015508941066397e-04
2.640593102126052513e-04
2.716047334348440506e-04
2.614746140380585018e-04
2.509759846243062031e-04
2.562259322440437956e-04
2.455779020048495798e-04
2.407203405223662038e-04
2.491673671097677234e-04
2.573562489500405212e-04
2.567080033943191369e-04
2.467808596511933752e-04
2.497084701275241111e-04
2.559929703894016709e-04
2.599502637922225523e-04
2.633058024775090586e-04
2.579222307385418272e-04
2.564828584836380612e-04
2.516276000702442894e-04
2.556124173040399614e-04
2.562261287802998153e-04
2.512800306320615504e-04
2.590536859635927600e-04
2.628429220965242466e-04
2.541744472962037885e-04
2.545235187711410510e-04
2.620177845494087512e-04
2.585157590740726555e-04
2.596127062646520073e-04
2.565336336130307274e-04
2.590878913140406622e-04
2.541096210318437645e-04
2.559878590148948613e-04
2.531088531271541431e-04
2.537074909388561256e-04
2.637197502000599922e-04
2.743627430314499530e-04
2.785398416975800803e-04
2.685951919560490911e-04
2.608223378845119997e-04
2.592476272087300415e-04
2.525322778107706723e-04
2.601562169585762072e-04
2.672774123464146181e-04
2.670355067276048572e-04
2.746188935468180450e-04
2.764632976210643078e-04
2.637572698864438028e-04
2.601883971507347806e-04
2.644278985911080113e-04
2.689136868995207347e-04
2.601936427048525888e-04
2.632765890689774124e-04
2.661757081507416106e-04
2.749236376374773749e-04
2.682666581081544210e-04
2.619482619086585182e-04
2.627489861649658087e-04
2.720050447494459789e-04
2.692870477640565974e-04
2.597367658335996560e-04
2.720240738260971958e-04
2.913603230607240621e-04
2.955350582191790254e-04
2.882124592752839665e-04
2.841925902687982008e-04
2.786033203914829726e-04
2.834162645741064232e-04
2.788765401260289226e-04
2.804822881907892418e-04
2.802901092332802865e-04
2.835890681785607770e-04
2.782236199166607249e-04
2.684391900353551644e-04
2.801193191701925600e-04
2.895732217257735927e-04
2.905523442027664605e-04
2.829264031065700097e-04
2.878199624073299670e-04
3.014640036660435826e-04
2.996845825667966007e-04
2.958429522164785636e-04
2.913619052777533316e-04
2.785468293735595888e-04
2.811171033296668703e-04
2.996041339634386222e-04
3.108491902767025750e-04
3.020126568326897409e-04
2.867650925093296471e-04
2.887423071185031900e-04
2.858120430641354626e-04
2.853190078412528446e-04
3.010984078168979505e-04
3.080051769642332821e-04
2.977950508578413799e-04
2.832826500738482023e-04
2.796070636279955265e-04
2.937981542814145294e-04
3.121485086585501154e-04
3.272720655354893413e-04
3.372746636726804345e-04
3.617300498723833441e-04
3.715372235866447673e-04
3.686512554387216117e-04
3.675958712662978981e-04
3.589599737872989013e-04
3.471660586845566610e-04
3.502427011727107797e-04
3.439930376342974910e-04
3.217015824277056485e-04
3.009995606221196190e-04
2.904215444097966656e-04
2.934544039340045846e-04
3.152101387265101098e-04
3.213238104756554331e-04
3.052201989003954299e-04
3.045049388138640345e-04
2.952438590943292501e-04
2.933395058607422834e-04
3.014121174981830922e-04
3.015251459766565140e-04
2.924816400831139335e-04
2.849424839555950509e-04
2.735942606713693062e-04
2.895264769883542158e-04
3.200876517458397380e-04
3.142772242653042031e-04
2.877533922725789700e-04
2.731779972934104961e-04
2.970760144053547977e-04
3.358011015715586106e-04
3.328381824227984523e-04
2.853763478386159291e-04
2.517625408906378273e-04
2.242987596912833503e-04
2.128548005521282288e-04
2.586248583926918296e-04
3.247689309141430988e-04
4.227683976816571515e-04
6.579581270445937491e-04
9.832447916629542470e-04
1.294290278754522093e-03
1.588120625551782406e-03
1.718666853605376257e-03
1.357867605037699210e-03
9.631139383455425765e-04
5.994083449598376634e-04
3.361279351281184699e-04
3.065811247313990351e-04
3.743637453568777335e-04
4.376850637140437469e-04
4.638321253999490648e-04
4.152677450721033864e-04
3.691200752607357027e-04
3.708528410970310732e-04
3.979395867161165945e-04
4.028377713785275330e-04
3.763532449265723570e-04
3.478694822770496756e-04
3.657349040265796616e-04
3.880579203779585540e-04
3.897334268114470424e-04
3.678103602183062371e-04
3.600158860797373489e-04
3.655562306321006108e-04
3.658172436695472651e-04
3.842157344334518054e-04
4.028243604114892587e-04
3.971251708530416924e-04
3.834343205906236979e-04
3.751254754494172741e-04
3.796144997338241067e-04
3.982440949497753277e-04
3.957900363257245771e-04
3.866233494755509301e-04
3.888559883523179730e-04
4.002787048374804868e-04
4.112711797260911600e-04
4.179114963716694386e-04
4.139842804402760895e-04
4.069865700926005372e-04
4.092967911497836717e-04
4.160856084421500276e-04
4.215969507151322640e-04
4.322542728026372225e-04
4.239908696009649786e-04
4.226017273310112704e-04
4.305001272473874332e-04
4.487032408614080245e-04
4.560274047877418621e-04
4.543432872769551101e-04
4.534162976846858178e-04
4.527637863527503997e-04
4.562023198061730331e-04
4.664769648187443857e-04
4.769702814540971794e-04
4.808685339272502496e-04
4.945599050957798920e-04
5.015783206539564318e-04
5.079275398494004570e-04
5.155094947587295778e-04
5.145661675671677621e-04
5.171810278867929392e-04
5.114500036857072204e-04
5.314335666009037742e-04
5.493181503562795387e-04
5.539503821930429409e-04
5.558002453785650804e-04
5.595084785025520452e-04
5.664980968597063682e-04
5.702548646193189227e-04
5.763362701609901426e-04
5.847408930871470303e-04
5.847623160316279059e-04
5.890141466564149941e-04
5.963362885445374836e-04
6.086635513721455962e-04
6.126514504041146933e-04
6.139632612958577026e-04
6.044155881596256774e-04
5.973957022291660063e-04
5.890785998780038654e-04
5.825468758928536647e-04
5.620581767554859443e-04
5.459607509455451785e-04
5.298516930259912147e-04
5.035075496191013592e-04
4.777223872027289500e-04
4.555058533798356929e-04
4.410254765078534117e-04
4.176450146887904571e-04
4.123716280060602674e-04
4.085958056632013960e-04
4.033783572165482514e-04
3.863037194465042748e-04
3.713361285915973281e-04
3.695206997204941377e-04
3.635485905350219205e-04
3.692457469613658408e-04
3.718596397508265247e-04
3.703066744055079351e-04
3.703752509100930942e-04
3.608158589241050249e-04
3.639109977761996115e-04
3.680316240821969453e-04
3.789754360278311737e-04
3.751949580559138173e-04
3.814584363456873309e-04
3.811157881577903472e-04
3.852527237941157784e-04
3.829600184610112631e-04
3.733572550058857076e-04
3.774013670088905911e-04
3.773168490855691518e-04
3.758700270548934186e-04
3.701450432294596180e-04
3.665490335901149324e-04
3.605078047664933907e-04
3.515945258321072353e-04
3.560277240664917395e-04
3.506550214108375765e-04
3.638181789524892393e-04
3.716504514965166678e-04
3.596989638732488864e-04
3.536491531830592699e-04
3.517639749778395108e-04
3.504942288989560187e-04
3.417544710138465183e-04
3.401913450986624246e-04
3.635032394500720132e-04
3.667856859144663986e-04
3.630318630486956480e-04
3.658015391651472242e-04
3.616081315225821297e-04
3.483105582413638379e-04
3.389811369388295512e-04
3.478514565666470520e-04
3.538167720020428744e-04
3.465977626746271495e-04
3.548382879353991631e-04
3.525007806427600185e-04
3.462260215670292379e-04
3.518456303287518031e-04
3.449903102666854876e-04
3.379559566468815293e-04
3.393692503772813632e-04
3.382412580501441626e-04
3.329429400149644391e-04
3.308074677096182331e-04
3.306420915655259099e-04
3.274965918114713936e-04
3.248120536281928761e-04
3.201642277778646642e-04
3.312233158971993052e-04
3.339650250020493455e-04
3.247149851712113552e-04
3.237318452932015991e-04
3.255568630934329438e-04
3.335048137927103945e-04
3.400573116798108128e-04
3.408270047119766125e-04
3.357253088633735047e-04
3.311391494345040931e-04
3.299472672562029849e-04
3.241027659950596398e-04
3.216640718016871431e-04
3.274941733663692262e-04
3.188677595123458330e-04
3.208089060827310976e-04
3.203279462135793024e-04
3.151450892513096499e-04
3.227637064849098528e-04
3.206107883924847954e-04
3.152461232104331046e-04
3.109810372114441002e-04
3.103239475192552665e-04
3.223421474324306146e-04
3.161515660784694481e-04
3.042561245507179740e-04
3.072767419405736389e-04
3.114014253078481800e-04
3.111921735709493458e-04
3.052395308226129797e-04
3.036425277691658445e-04
3.033083727016685355e-04
2.996863770759645995e-04
3.014944122543394139e-04
2.956872985751960239e-04
3.030286633433484575e-04
3.039549128916315887e-04
2.975035233677755103e-04
2.936676506410341655e-04
3.024834178856541239e-04
2.979339728215891353e-04
2.978307663030598657e-04
2.980684486906534994e-04
2.883083192768342781e-04
2.988724838541949314e-04
3.079138380696500726e-04
3.063271766739145488e-04
2.953690785794374149e-04
2.910349244859824699e-04
2.953481517811743992e-04
2.917307595740777082e-04
2.827683719860817763e-04
2.841075606916888471e-04
2.892673819947589112e-04
2.795350794924829352e-04
2.764961301036728339e-04
2.876518416618902355e-04
2.927415438077002677e-04
2.890078234074749952e-04
2.779737440348449551e-04
2.797236757495370069e-04
2.789052264164110922e-04
2.716347709597471960e-04
2.697132215336087158e-04
2.658743113361115504e-04
2.672475716388993811e-04
2.620505169302405832e-04
2.742790011543106907e-04
2.803348839470840709e-04
2.819302539511887515e-04
2.700035084075005573e-04
2.671902321223044996e-04
2.715200918012384071e-04
2.605519869311075098e-04
2.752846611246235684e-04
2.917312837409091753e-04
3.127779524059424998e-04
3.216941248571211429e-04
3.261471521796748332e-04
3.366912978492410044e-04
3.336912417000381312e-04
3.242137335424163241e-04
3.186126034831230844e-04
3.154253174305473792e-04
2.908568178330555448e-04
2.605002211097297987e-04
2.473751792966142130e-04
2.463679628707943214e-04
2.665211009340558504e-04
2.788591539056627447e-04
2.731565346061311586e-04
2.542400085270620641e-04
2.480090994577393432e-04
2.424864675403745617e-04
2.455224851460003840e-04
2.482823602573880004e-04
2.487502811013859311e-04
2.451884851934335238e-04
2.390971476937493387e-04
2.435970634210547769e-04
2.655026625428720533e-04
2.779752727834509593e-04
2.498864022104285362e-04
2.214107051858402869e-04
2.286694413551598054e-04
2.708622057914751927e-04
2.765702160508623844e-04
2.413407402473474045e-04
1.992181980309572220e-04
1.768086848939190089e-04
1.441326437319817230e-04
1.453784870825737541e-04
2.151814430232795727e-04
2.595237017915148769e-04
3.680268209546770988e-04
6.319083007110303310e-04
9.780256881732184854e-04
1.292787994265127798e-03
1.572250859274212410e-03
1.506721476101139344e-03
1.087459051047321573e-03
7.433335212914532475e-04
3.787866846457045925e-04
2.053221253190068776e-04
2.493218864839021748e-04
3.243584848541111385e-04
3.663170678762728630e-04
3.353647273876296173e-04
2.848648990299079350e-04
2.610707096996015691e-04
2.779940031024082450e-04
2.959219898221888273e-04
2.955898835795608276e-04
2.668623121780547627e-04
2.413353708988459981e-04
2.672213825917410523e-04
2.884814621041970756e-04
2.933483316624940426e-04
2.736410795391398462e-04
2.750057130074465284e-04
2.651213831969239515e-04
2.750848694635932290e-04
2.850904183112606266e-04
2.853003376648852521e-04
2.840763902647392217e-04
2.760428524585974153e-04
2.690719064520627826e-04
2.724109212976517230e-04
2.928594778505225205e-04
2.921426960598560302e-04
2.738535194877029719e-04
2.777719016086293430e-04
2.915992267973482877e-04
2.981206472526835502e-04
2.987094430512730533e-04
3.003477098046224841e-04
2.965788940761989595e-04
3.103129274624428710e-04
3.212997444158819521e-04
3.251853999336465004e-04
3.206142294950482807e-04
3.112730331231066197e-04
3.154693291503828101e-04
3.175996015205460529e-04
3.266411746028841448e-04
3.322819395195943104e-04
3.354735617987127799e-04
3.453599782375039659e-04
3.528426101680210564e-04
3.664028873551477411e-04
3.665615625529907926e-04
3.700663659321297080e-04
3.659444874341529277e-04
3.592924755327787240e-04
3.726363617767968622e-04
3.940896149700924556e-04
4.014712693815349065e-04
4.012066075879975810e-04
3.916896447571701495e-04
3.900450018909113609e-04
4.066476213086074251e-04
4.156882752088921287e-04
4.224553751675649491e-04
4.274641373107615147e-04
4.397673669874193822e-04
4.438705843781811169e-04
4.411448691875553482e-04
4.434758910089788703e-04
4.570159915591644889e-04
4.594711607545680018e-04
4.700493440807432255e-04
4.834337040971895330e-04
4.935038819834057511e-04
4.919542821354514622e-04
4.815771389919303383e-04
4.650818489808318176e-04
4.590520790947070703e-04
4.590584875309470722e-04
4.522139156530524326e-04
4.375196944070968569e-04
4.255731262311924362e-04
4.122324526152102916e-04
3.917069062794858308e-04
3.770241610272602115e-04
3.599423114570348900e-04
3.480243509490100334e-04
3.309115205541324906e-04
3.168610596605524188e-04
3.157724689662293194e-04
3.077784619510285161e-04
2.910268581913372232e-04
2.848145557406622438e-04
2.866663524542303887e-04
2.818325680013266180e-04
2.782112760178279479e-04
2.673897944260308565e-04
2.736030432116069028e-04
2.720081044103447518e-04
2.704305952936783899e-04
2.735528067299040564e-04
2.801638344474407724e-04
2.680103717113743039e-04
2.546052585933314058e-04
2.565945998885673859e-04
2.671081306263563618e-04
2.815741507647450195e-04
2.799178042435634256e-04
2.791406946447937132e-04
2.741881280332453263e-04
2.720764352053782476e-04
2.769064087867140547e-04
2.893572193903770282e-04
2.863708773776741864e-04
2.839950505895711547e-04
2.765171451522326768e-04
2.604042513197034336e-04
2.614626441700710832e-04
2.671787966195098007e-04
2.688029110432081648e-04
2.713688835289124884e-04
2.702125246280594542e-04
2.674069076694061964e-04
2.545693591474865528e-04
2.454516300311364654e-04
2.464963653077550942e-04
2.433778588065123663e-04
2.483613105144256983e-04
2.496318121921036609e-04
2.548382599336044413e-04
2.467306559306593067e-04
2.368784704476177561e-04
2.444816761136073269e-04
2.534994109732483999e-04
2.558972639425177373e-04
2.618901903621547247e-04
2.496575791644311745e-04
2.469152688192579811e-04
2.353298895166949442e-04
2.385845571401881693e-04
2.347847149156865806e-04
2.366306642936763169e-04
2.437981125072768637e-04
2.323038529855074238e-04
2.388897572341928260e-04
2.382232612399611676e-04
2.306683496711304376e-04
2.282258013491036963e-04
2.246244956963855052e-04
2.188752634557835502e-04
2.140503960661689284e-04
2.245800173474518657e-04
2.261987740330090660e-04
2.204900633031364396e-04
2.287120518492131299e-04
2.282054276981290708e-04
2.201274777573238028e-04
2.175700107700942812e-04
2.090314398297109938e-04
2.076807633385642504e-04
2.197916708860528714e-04
2.240881798936103161e-04
2.300297618535633928e-04
2.272280834354741333e-04
2.211076972885679323e-04
2.141101069408303179e-04
2.163570382551754240e-04
2.181600682345692654e-04
2.178458297975591554e-04
2.132509620342880677e-04
2.126258499148010045e-04
2.110420189066521124e-04
2.045560367233897892e-04
2.144388066610625546e-04
2.221697566178000224e-04
2.188514598424054144e-04
2.065000735078197092e-04
2.139816863407622421e-04
2.154492360331985643e-04
2.176470638424370455e-04
2.251726900420868843e-04
2.112684457179674416e-04
2.154968619561617449e-04
2.073897296823090305e-04
1.972116711683544882e-04
1.846746924465125783e-04
1.988923010562762550e-04
2.054927252131341642e-04
2.000542265620155330e-04
2.002786497840953681e-04
1.950410365134814389e-04
1.956964496649228960e-04
1.896013938725293890e-04
1.906721103505605239e-04
1.993717750543170034e-04
1.965906378154505876e-04
1.925935917171262696e-04
1.894945215611711087e-04
1.879247247792061731e-04
1.913415909700864892e-04
1.924562159652653398e-04
1.890215806666910997e-04
1.766369862938755447e-04
1.747850142861809633e-04
1.784842347745960525e-04
1.858676254607814077e-04
1.880685819574817730e-04
1.780872694472608944e-04
1.802057700224452344e-04
1.744897577257535637e-04
1.724452653882897063e-04
1.907739772867896727e-04
1.834344973433354661e-04
1.727521153828308689e-04
1.802114120756839050e-04
1.803931309371778133e-04
1.775160317063033399e-04
1.879113903395998597e-04
1.943079179891251534e-04
1.753240470457086142e-04
1.655088235675986411e-04
1.733438191387562388e-04
1.826575110440509589e-04
1.809838113023846604e-04
1.759951722382132461e-04
1.609820506222794240e-04
1.551144262139673644e-04
1.490453272260938711e-04
1.592870821971355266e-04
1.717071801936335615e-04
1.950362498356833854e-04
2.223453463403224015e-04
2.309457193927551971e-04
2.395326276704405621e-04
2.473215580241962946e-04
2.255236577870696479e-04
2.088007149034110804e-04
1.938330283680744087e-04
1.893812480064866258e-04
1.794016881743795006e-04
1.586126814343098365e-04
1.459145177479873046e-04
1.446592693015837441e-04
1.653171013292313585e-04
1.836886261274654070e-04
1.746780237294265695e-04
1.632506068129004756e-04
1.445491384340661864e-04
1.349180238587243882e-04
1.415959388167088370e-04
1.424531158732257954e-04
1.491860932436202269e-04
1.463963726405044172e-04
1.177872827072094786e-04
1.205195148428423249e-04
1.463893474022348248e-04
1.609502352970396469e-04
1.445226540555009584e-04
1.231737350048823371e-04
1.168606234220360973e-04
1.361204184693008690e-04
1.620211860959555258e-04
1.464876537510999624e-04
1.023496963486747457e-04
8.871052298959226229e-05
5.988996957704845886e-05
5.581527888582227953e-05
1.311798668997485318e-04
1.889645214069165732e-04
3.322728055104324368e-04
6.167669290050928343e-04
9.494040476689304814e-04
1.277117200425856823e-03
1.589563459231045986e-03
1.517224546776999722e-03
1.127636756507096986e-03
7.391155445484248396e-04
3.459421087821795693e-04
1.174893140395184832e-04
1.192488047119261846e-04
1.959204605359535917e-04
2.526880281372616624e-04
2.427547124529746275e-04
1.879666122001659098e-04
1.677222041471197050e-04
1.811093337119552490e-04
1.880890218877630943e-04
1.914718284585260888e-04
1.677349909361969260e-04
1.549847564091041269e-04
1.613813464628075997e-04
1.709574241011979634e-04
1.848134961651730010e-04
1.726320393836602157e-04
1.657723235978141377e-04
1.622612147358050080e-04
1.708526877074690795e-04
1.780726367817892300e-04
1.741697139071079689e-04
1.698599759674462514e-04
1.675310959441027661e-04
1.755876082392164236e-04
1.867293224485384179e-04
1.888763308649068010e-04
1.816571412060338439e-04
1.653607803891038452e-04
1.568088945935949829e-04
1.710254952174946122e-04
1.783187055863213674e-04
1.815804278947046740e-04
1.756063252190825930e-04
1.709453745975461625e-04
1.746423935623407295e-04
1.888236371979622186e-04
2.051004053090187129e-04
2.041681674039971459e-04
1.925153755071712380e-04
1.905800265767643165e-04
2.010132507693340037e-04
2.164751370059324678e-04
2.212907050445304252e-04
2.196619908784993788e-04
2.112538046600944200e-04
2.093115976316371057e-04
2.112804784074407208e-04
2.197186257671783494e-04
2.317339596362936321e-04
2.457550809986689885e-04
2.465728317885620968e-04
2.369049411522806958e-04
2.396847491244209066e-04
2.487296604793192908e-04
2.591735091924890835e-04
2.529292805943540029e-04
2.661728089766012689e-04
2.867591788092496707e-04
2.824845944724490784e-04
2.768643421120382808e-04
2.718696387999028352e-04
2.851963453496036624e-04
2.876297363183927258e-04
3.025792766750065588e-04
3.115868810696495114e-04
3.174958994603127582e-04
3.264720125733359957e-04
3.278872790645898094e-04
3.350334750911784093e-04
3.254891076657252802e-04
3.278534750962083799e-04
3.261575391920778014e-04
3.118854413539850698e-04
3.129138679729198333e-04
3.299691334538792931e-04
3.192247636250727938e-04
2.894095001852890411e-04
2.736896746616057988e-04
2.469846894482983710e-04
2.284862098708680470e-04
2.153105703310764438e-04
2.036681536242111734e-04
1.831195756796894988e-04
1.725062038970669870e-04
1.593865928231083876e-04
1.492577430588053200e-04
1.498038187875121857e-04
1.478450222116125048e-04
1.342162411964685498e-04
1.288072954964154110e-04
1.155607891904610399e-04
1.181077820478926982e-04
1.175064045083884512e-04
1.024712312104698528e-04
1.006613095717234438e-04
1.018750576364029978e-04
9.715371465997095501e-05
9.381793367268555228e-05
9.547829302710038324e-05
8.869243809007509166e-05
8.480952039615578114e-05
8.859680368705769027e-05
8.764120824195000686e-05
9.954286506141680341e-05
1.045673051060522565e-04
1.027524302890875721e-04
9.997764671581740870e-05
9.401661415400427990e-05
9.926057767652412406e-05
9.797108363952811150e-05
9.277349415984324082e-05
9.158249693469889402e-05
9.414951594337826746e-05
9.461294893667142325e-05
9.168339515561608338e-05
8.561367754992676299e-05
9.338100586972833406e-05
9.035448725789371055e-05
7.795811698743139451e-05
7.763145642801245333e-05
7.476364912663031187e-05
7.504189213088097166e-05
8.596630862563008069e-05
7.893110918746806121e-05
8.791746289744679227e-05
9.860572695157346357e-05
8.800825160591111557e-05
7.023387455567815102e-05
7.428190348516237884e-05
7.781943913538237612e-05
6.358915902356706423e-05
7.162009471886436607e-05
7.122418815048645047e-05
6.668680995776301440e-05
7.375605771108538489e-05
7.738871942115227442e-05
6.925790950299340332e-05
6.177076338661612737e-05
7.757340606289516577e-05
6.920985100959328729e-05
5.701276321439657790e-05
5.149383093077438550e-05
5.749268815465925775e-05
5.200097706651533175e-05
4.660993217470241895e-05
5.781301807144222094e-05
7.521350688999457745e-05
8.289466990676723490e-05
7.262561712239202355e-05
5.619511710370367341e-05
5.139403251820749002e-05
6.368164697905746158e-05
5.052927955980380387e-05
4.677730847790512875e-05
5.090163497741342913e-05
4.843096090139699383e-05
5.251006589063276359e-05
5.516692452589740114e-05
5.463319673033439211e-05
6.532210904279262681e-05
7.344928397531175213e-05
5.852035539058095259e-05
4.591796998556704756e-05
6.046162221178853768e-05
6.077887051662844708e-05
4.263495978705685030e-05
3.851572730866059668e-05
4.224046196600345776e-05
5.086089372386033702e-05
6.050804461806783691e-05
5.074121690130332235e-05
5.801982270338748582e-05
5.181836225354782138e-05
4.491646306653291482e-05
3.391248286888949581e-05
3.714611666390255085e-05
3.407564759951974692e-05
3.933524382741717534e-05
4.120931108661952252e-05
5.179326866571343918e-05
4.804607987747219755e-05
4.817995326297005304e-05
5.321629877245472040e-05
5.164955614678744256e-05
5.947120418936698016e-05
6.074163458203232779e-05
6.141404192790307637e-05
4.243873466443053022e-05
2.416912417037807292e-05
1.772263114702306297e-05
2.991520861012845339e-05
3.874749026567397836e-05
5.048899764849724275e-05
4.836221355858979359e-05
4.052764206525973772e-05
3.679920921530795835e-05
4.643271691888700009e-05
5.350758157222825634e-05
4.520230844432850115e-05
5.370302789748856997e-05
4.816695493550880031e-05
4.335929230734215239e-05
3.958107335384764003e-05
3.093913875827983273e-05
2.453924276311133384e-05
2.812562639932948000e-05
4.122017097390583834e-05
4.708668589524771936e-05
6.124495680050884294e-05
5.658904687389377380e-05
5.776893298458079390e-05
5.240604291607744297e-05
6.896537364232350337e-05
9.658855834861722334e-05
1.267137840927088158e-04
1.178032446380152323e-04
8.962273113005680969e-05
7.580680480383152758e-05
6.572722272087886536e-05
5.939823471138271083e-05
4.027336382801324777e-05
2.333886076146245853e-05
3.170134260442169366e-05
3.916215130537591821e-05
4.324855446268590503e-05
3.948486200584452877e-05
4.023190669867442171e-05
2.889222780896004428e-05
1.740056387205743405e-05
6.521934118998082286e-06
9.174290948794384948e-06
1.584215642421588077e-05
1.534604566414549121e-05
-5.082362072592397362e-06
-1.451340421590018720e-05
2.186274055195319005e-05
3.555189785314251394e-05
1.438039461816933984e-05
-4.189453021056360749e-06
-5.519439899401464011e-06
3.129801282786195266e-05
3.394362397438500240e-05
1.149375076209876306e-05
-2.675774076947579072e-05
-4.937780118341884156e-05
-8.216743729577962591e-05
-5.857166791770583580e-05
2.745603366431301207e-05
1.128343749237448526e-04
2.932404453853251422e-04
5.986087656491955594e-04
9.279552311008288507e-04
1.212643617899827019e-03
1.489216038225855444e-03
1.381230919511688797e-03
9.655391289848883757e-04
5.376218474197509700e-04
2.055377125347451761e-04
-5.114479630202381499e-06
-1.246881652457090123e-05
8.102124864287074679e-05
1.328884827577619943e-04
1.031083584058173699e-04
6.227363911560663406e-05
4.476070420981418524e-05
6.547590263708113340e-05
9.044555901448030066e-05
8.018619236103453896e-05
4.933949186953449223e-05
1.846412336387829450e-05
3.099466154543421836e-05
5.870603855611267879e-05
6.545023289066410205e-05
8.008955682245900293e-05
4.348954940774658190e-05
4.001480863182610426e-05
5.910284925437873926e-05
4.521133885211896936e-05
4.213635871105556041e-05
5.762507109639998515e-05
5.424843493885295881e-05
2.943819807825313883e-05
4.501798412761496421e-05
6.701812922684478868e-05
4.718833480007230546e-05
3.382158024349719849e-05
4.446651215733385398e-05
4.622585737262732003e-05
6.122331860752925486e-05
6.640606058829108538e-05
6.857455875158326164e-05
7.183522126801185348e-05
8.466620312901941559e-05
7.491946121420019200e-05
7.848257362369492895e-05
8.342276237209653861e-05
6.836455606280995856e-05
6.250817946117353391e-05
8.150770393453802415e-05
9.936361424816176485e-05
9.865419782529010612e-05
8.654673061268044337e-05
8.732878626789564169e-05
9.215338796899567170e-05
9.631061438965422827e-05
1.130867161200817261e-04
1.170805437907679325e-04
1.093487403238989700e-04
1.204498103722318955e-04
1.224465192233917255e-04
1.160499463168269962e-04
1.342567808472507063e-04
1.397235107971732393e-04
1.443088900932561550e-04
1.374330671801773929e-04
1.492193583434832729e-04
1.620846995940136356e-04
1.717945278584794358e-04
1.710885898282788961e-04
1.623632647103469620e-04
1.823738469872758852e-04
1.831523638879534177e-04
1.732244416483997435e-04
1.798875191454940570e-04
1.838759181883881794e-04
1.911601591874046921e-04
2.113056581517945218e-04
2.229960483906747587e-04
2.268825118753991371e-04
2.244070949064813636e-04
2.199356235965182690e-04
2.132900631419054269e-04
1.983124529456601129e-04
2.045931527134819267e-04
1.924645565749482853e-04
1.787266882215176808e-04
1.654892057257580443e-04
1.494504197513896529e-04
1.379847045500049926e-04
1.158091192541193040e-04
1.092877302635124337e-04
9.684411806965952801e-05
7.964324447003526264e-05
7.140592133591128904e-05
8.249598270399383787e-05
6.122943048002347372e-05
5.295248865933629284e-05
5.102009498289712675e-05
5.540650995892321129e-05
4.878768895854451726e-05
5.215902796784719492e-05
5.127713455855675145e-05
5.161005877460812102e-05
6.152280662684913443e-05
5.400142730238328276e-05
5.078976027027195389e-05
5.035953479955255357e-05
5.437771372331264008e-05
5.211305147719523523e-05
4.038073883162913991e-05
5.499377971410722432e-05
5.294733171094974378e-05
4.025764652783054426e-05
3.529555815079930825e-05
3.804376500564192465e-05
4.080108345619511134e-05
3.900070973295640536e-05
4.516243052567290445e-05
5.599023359886910051e-05
5.102337446706833174e-05
5.435865763076756091e-05
5.859806871848401155e-05
4.396715024143627026e-05
4.302316293059143398e-05
3.435504037585090237e-05
2.587697471150788436e-05
2.981510209734174188e-05
3.949094119089311544e-05
4.222780252564374559e-05
4.714398486744143107e-05
5.457412579517369883e-05
5.764606052003837244e-05
6.451008585689303743e-05
5.150228064122394644e-05
4.956222959188842647e-05
5.363525089026929121e-05
5.902202713529026284e-05
3.581997442181090313e-05
3.880089608878853347e-05
4.575645608635887929e-05
3.717443481538428018e-05
2.990400067519501104e-05
3.133115232384700577e-05
4.808296058937417544e-05
5.171155496462836315e-05
4.420630270575952314e-05
4.840050823502837357e-05
5.516696564325171415e-05
4.926466878049564485e-05
4.614432844182725368e-05
3.962642370389322238e-05
3.983090259800960153e-05
4.370426769715642090e-05
3.921264615346434224e-05
3.550115409966386748e-05
4.420796926134316213e-05
4.167186421278647190e-05
3.151630133426189251e-05
3.779709165687133304e-05
4.309542538752375584e-05
4.663003962201203029e-05
4.839093228865831708e-05
5.521646655380196139e-05
5.298602577368492772e-05
4.635710052320034941e-05
2.954225732903787566e-05
3.522057288406470893e-05
2.924131555097006507e-05
3.792962918597840571e-05
4.409974053670630972e-05
5.265911082430636825e-05
4.397668887686553146e-05
4.764825614696297645e-05
4.797815258685261125e-05
3.668879265419401625e-05
3.586251545845912242e-05
4.302129577222774809e-05
5.002437140582804281e-05
4.860720398264239961e-05
5.101463243150066579e-05
6.127025378716358106e-05
6.041747638713471091e-05
4.655563176216102189e-05
3.025076037441350174e-05
3.924032335926933013e-05
4.924567114359020004e-05
4.725577138064551014e-05
4.526812347078329468e-05
4.510074278851836788e-05
4.738526079195795604e-05
5.031993883917226101e-05
4.603983306184031982e-05
4.537126616113804772e-05
5.295365395489252253e-05
3.688850028761136296e-05
3.704694393035379979e-05
4.799093337441630996e-05
4.258990116874465659e-05
4.917423012914222402e-05
4.431275024271204982e-05
2.382294580771573272e-05
1.413224762266459406e-05
3.035903753451692916e-05
3.081879685873367691e-05
3.433055021280061875e-05
4.173352969383259392e-05
5.608481686343331357e-05
8.378856987171709458e-05
1.088945566278202298e-04
1.130311144275607249e-04
1.084855546521715924e-04
1.036173757383443764e-04
9.238523615492325730e-05
6.868404807415431218e-05
6.148614028069626647e-05
5.946145426156609903e-05
3.207461619507759321e-05
1.559426805818747708e-05
3.201083598720205758e-05
5.438631432318468545e-05
4.788319238985695031e-05
3.787304987366846287e-05
2.530736291583672581e-05
6.368926050787787618e-06
9.560300459897017045e-06
2.005621188592727339e-05
2.225353718460828384e-05
1.850409924321946148e-05
1.384233302496873375e-05
9.166449136498514005e-06
2.259991453852378679e-05
3.737692221017756972e-05
2.714693350113275838e-05
1.837012076047819797e-06
-9.511969496094757615e-06
1.059857267034745865e-05
5.476772758527051477e-05
5.139274759827401617e-05
1.469713621854006752e-05
-2.263698825004205328e-05
-5.039068111188215598e-05
-7.002809553940947396e-05
6.554103986183140718e-08
9.533162440817592037e-05
2.314198845276378355e-04
5.045143984321927982e-04
8.702161789886329879e-04
1.164236332492317449e-03
1.451952765208804584e-03
1.507351234551397058e-03
1.131289160957521349e-03
7.109323959002796303e-04
3.258127685798308318e-04
6.309079940268382675e-05
1.450022293571218146e-05
6.971967258592899619e-05
1.448351042591736193e-04
1.397419951249066067e-04
9.862640843923391881e-05
6.267848207512031339e-05
6.713167652723679713e-05
9.972619233083665491e-05
1.111067507790393372e-04
8.926011428891066080e-05
6.265184690410451063e-05
7.435482715077365579e-05
8.994565942869840736e-05
9.274137719855312517e-05
8.781032546769079045e-05
7.273657612079983265e-05
6.977345183973443499e-05
8.772483324456271936e-05
9.370658343306036836e-05
1.005154320793903017e-04
9.753801787764151965e-05
9.353516925688764444e-05
8.362594995478447174e-05
8.172803033386962651e-05
1.001765891672232525e-04
1.195434716229539646e-04
9.981820023891637556e-05
8.822356529840282707e-05
9.677193802651133658e-05
1.141178712824996583e-04
1.084058107329857398e-04
1.080649761930445318e-04
1.141029326369290969e-04
1.128836836659635051e-04
1.170016034664567509e-04
1.198601726255452138e-04
1.281126658535004792e-04
1.281406988233148650e-04
1.283133706707784844e-04
1.405767260112683603e-04
1.473404029576283469e-04
1.501775537137914340e-04
1.539429633077163753e-04
1.558672614548600038e-04
1.694565064557299050e-04
1.844448586573134083e-04
1.837126823584162363e-04
1.882866924138712136e-04
1.853458603305194533e-04
1.809883037029108924e-04
1.824420583265394524e-04
1.972024322056901285e-04
2.064227936328594595e-04
2.089156272777059620e-04
2.072418273404846856e-04
2.079669382652783727e-04
2.229742774149494344e-04
2.421684700671467363e-04
2.382982186948075579e-04
2.410918541920509944e-04
2.509801552796229671e-04
2.631005898104899973e-04
2.598031300815551933e-04
2.787382754476106297e-04
2.923374653029352233e-04
2.849552064361268039e-04
2.944184454170221260e-04
3.108406010358119934e-04
3.197920580461982229e-04
3.218020218101799029e-04
3.201895248399555874e-04
3.176476641748617047e-04
3.037892357645186406e-04
3.010408091146795848e-04
3.003760078657963239e-04
2.931077851273562740e-04
2.645500550465156378e-04
2.479819047145823130e-04
2.308452720155554014e-04
2.130014564564238627e-04
1.894449892640070673e-04
1.710543079193310029e-04
1.615266609038120901e-04
1.502338757289611859e-04
1.436256809701505835e-04
1.482645485710405373e-04
1.542947573733143701e-04
1.413604429654794978e-04
1.319482842790193830e-04
1.271653946731026233e-04
1.118416137552719763e-04
1.105527951918003002e-04
1.163585833549116849e-04
1.086080393913032086e-04
1.095061203458319241e-04
1.164771583816517908e-04
1.201228848830447268e-04
1.214299172805121188e-04
1.219043329985305957e-04
1.365392669263826644e-04
1.363446554499435012e-04
1.331793791512466199e-04
1.295613456179451131e-04
1.217401452937470416e-04
1.202205266245745530e-04
1.174270271188321627e-04
1.276962565822867268e-04
1.257981958100408068e-04
1.272543999966489064e-04
1.226066120013566407e-04
1.115584728226658856e-04
1.134606709859075843e-04
1.131867098394653479e-04
1.207347253397448097e-04
1.238526882307716681e-04
1.185380477961035101e-04
1.221719404431069814e-04
1.217208327516702132e-04
1.284658920124503653e-04
1.371571078685610359e-04
1.352456292267115168e-04
1.375780123940868044e-04
1.333259619377864802e-04
1.255943278662642257e-04
1.236841798581168883e-04
1.267039786430890214e-04
1.245805230652733894e-04
1.298859389376088094e-04
1.210719523601451117e-04
1.164996301070480786e-04
1.090564941504971672e-04
